Distance (Å)  Energy (eV)  Force (eV/Å)
0.10 0.330631 0.902515
0.11 0.320710 1.054218
0.12 0.310162 1.022897
0.13 0.300906 0.796432
0.14 0.294835 0.389972
0.15 0.293613 -0.168313
0.16 0.298598 -0.845676
0.17 0.310811 -1.608450
0.18 0.330938 -2.422669
0.19 0.359320 -3.253454
0.20 0.395942 -4.064545
0.21 0.440421 -4.818759
0.22 0.492005 -5.479507
0.23 0.549587 -6.013096
0.24 0.611748 -6.391224
0.25 0.676823 -6.593141
0.26 0.742983 -6.607064
0.27 0.808329 -6.430678
0.28 0.870984 -6.070774
0.29 0.929182 -5.542214
0.30 0.981337 -4.866421
0.31 1.026106 -4.069649
0.32 1.062424 -3.181195
0.33 1.089527 -2.231709
0.34 1.106957 -1.251702
0.35 1.114557 -0.270301
0.36 1.112448 0.685722
0.37 1.101006 1.592682
0.38 1.080825 2.430475
0.39 1.052682 3.182888
0.40 1.017493 3.837733
0.41 0.976280 4.386832
0.42 0.930124 4.825862
0.43 0.880132 5.154077
0.44 0.827404 5.373918
0.45 0.772998 5.490547
0.46 0.717913 5.511324
0.47 0.663061 5.445266
0.48 0.609263 5.302521
0.49 0.557231 5.093868
0.50 0.507569 4.830280
0.51 0.460772 4.522545
0.52 0.417231 4.180957
0.53 0.377234 3.815087
0.54 0.340981 3.433612
0.55 0.308588 3.044214
0.56 0.280101 2.653539
0.57 0.255503 2.267196
0.58 0.234727 1.889801
0.59 0.217664 1.525049
0.60 0.204174 1.175801
0.61 0.194089 0.844182
0.62 0.187227 0.531683
0.63 0.183389 0.239255
0.64 0.182373 -0.032597
0.65 0.183972 -0.283744
0.66 0.187979 -0.514360
0.67 0.194192 -0.724869
0.68 0.202412 -0.915901
0.69 0.212448 -1.088252
0.70 0.224117 -1.242857
0.71 0.237249 -1.380765
0.72 0.251681 -1.503113
0.73 0.267263 -1.611112
0.74 0.283860 -1.706024
0.75 0.301345 -1.789147
0.76 0.319608 -1.861795
0.77 0.338550 -1.925280
0.78 0.358087 -1.980895
0.79 0.378146 -2.029896
0.80 0.398667 -2.073488
0.81 0.419601 -2.112804
0.82 0.440912 -2.148899
0.83 0.462572 -2.182735
0.84 0.484562 -2.215169
0.85 0.506873 -2.246951
0.86 0.529501 -2.278719
0.87 0.552449 -2.310992
0.88 0.575724 -2.344175
0.89 0.599337 -2.378556
0.90 0.623300 -2.414315
0.91 0.647628 -2.451521
0.92 0.672335 -2.490144
0.93 0.697435 -2.530059
0.94 0.722940 -2.571052
0.95 0.748859 -2.612828
0.96 0.775198 -2.655020
0.97 0.801959 -2.697193
0.98 0.829140 -2.738857
0.99 0.856733 -2.779470
1.00 0.884724 -2.818450
1.01 0.913094 -2.855181
1.02 0.941818 -2.889019
1.03 0.970863 -2.919308
1.04 1.000190 -2.945381
1.05 1.029754 -2.966573
1.06 1.059503 -2.982229
1.07 1.089378 -2.991713
1.08 1.119315 -2.994420
1.09 1.149242 -2.989782
1.10 1.179084 -2.977279
1.11 1.208760 -2.956444
1.12 1.238184 -2.926878
1.13 1.267267 -2.888251
1.14 1.295918 -2.840309
1.15 1.324042 -2.782883
1.16 1.351543 -2.715888
1.17 1.378328 -2.639329
1.18 1.404299 -2.553302
1.19 1.429363 -2.457992
1.20 1.453428 -2.353671
1.21 1.476407 -2.240697
1.22 1.498215 -2.119508
1.23 1.518772 -1.990619
1.24 1.538003 -1.854611
1.25 1.555842 -1.712127
1.26 1.572227 -1.563863
1.27 1.587103 -1.410558
1.28 1.600424 -1.252987
1.29 1.612151 -1.091949
1.30 1.622254 -0.928263
1.31 1.630710 -0.762750
1.32 1.637506 -0.596235
1.33 1.642634 -0.429530
1.34 1.646098 -0.263429
1.35 1.647907 -0.098702
1.36 1.648079 0.063912
1.37 1.646638 0.223713
1.38 1.643617 0.380044
1.39 1.639051 0.532293
1.40 1.632986 0.679902
1.41 1.625470 0.822365
1.42 1.616557 0.959233
1.43 1.606306 1.090114
1.44 1.594776 1.214673
1.45 1.582034 1.332635
1.46 1.568146 1.443781
1.47 1.553182 1.547949
1.48 1.537211 1.645030
1.49 1.520305 1.734970
1.50 1.502535 1.817761
1.51 1.483973 1.893444
1.52 1.464690 1.962101
1.53 1.444754 2.023854
1.54 1.424235 2.078861
1.55 1.403199 2.127310
1.56 1.381710 2.169419
1.57 1.359831 2.205426
1.58 1.337621 2.235593
1.59 1.315138 2.260192
1.60 1.292435 2.279514
1.61 1.269564 2.293852
1.62 1.246574 2.303509
1.63 1.223509 2.308788
1.64 1.200411 2.309992
1.65 1.177321 2.307421
1.66 1.154275 2.301372
1.67 1.131304 2.292130
1.68 1.108442 2.279977
1.69 1.085714 2.265180
1.70 1.063146 2.247998
1.71 1.040761 2.228677
1.72 1.018579 2.207449
1.73 0.996618 2.184533
1.74 0.974893 2.160137
1.75 0.953419 2.134451
1.76 0.932208 2.107656
1.77 0.911269 2.079916
1.78 0.890612 2.051383
1.79 0.870244 2.022198
1.80 0.850170 1.992487
1.81 0.830395 1.962365
1.82 0.810924 1.931938
1.83 0.791757 1.901297
1.84 0.772898 1.870528
1.85 0.754347 1.839703
1.86 0.736104 1.808889
1.87 0.718169 1.778143
1.88 0.700541 1.747515
1.89 0.683218 1.717047
1.90 0.666199 1.686778
1.91 0.649482 1.656738
1.92 0.633064 1.626953
1.93 0.616942 1.597445
1.94 0.601114 1.568231
1.95 0.585576 1.539325
1.96 0.570326 1.510738
1.97 0.555360 1.482477
1.98 0.540675 1.454549
1.99 0.526268 1.426956
2.00 0.512135 1.399701
2.01 0.498273 1.372783
2.02 0.484678 1.346202
2.03 0.471348 1.319956
2.04 0.458278 1.294043
2.05 0.445466 1.268460
2.06 0.432908 1.243202
2.07 0.420601 1.218268
2.08 0.408541 1.193652
2.09 0.396727 1.169352
2.10 0.385153 1.145364
2.11 0.373818 1.121685
2.12 0.362719 1.098311
2.13 0.351851 1.075240
2.14 0.341213 1.052469
2.15 0.330801 1.029996
2.16 0.320612 1.007820
2.17 0.310643 0.985938
2.18 0.300892 0.964349
2.19 0.291355 0.943053
2.20 0.282030 0.922049
2.21 0.272913 0.901336
2.22 0.264002 0.880914
2.23 0.255294 0.860784
2.24 0.246786 0.840945
2.25 0.238474 0.821397
2.26 0.230357 0.802142
2.27 0.222431 0.783179
2.28 0.214692 0.764508
2.29 0.207139 0.746131
2.30 0.199769 0.728048
2.31 0.192577 0.710258
2.32 0.185563 0.692763
2.33 0.178721 0.675561
2.34 0.172050 0.658654
2.35 0.165547 0.642040
2.36 0.159209 0.625719
2.37 0.153032 0.609690
2.38 0.147014 0.593953
2.39 0.141152 0.578507
2.40 0.135443 0.563350
2.41 0.129884 0.548481
2.42 0.124472 0.533897
2.43 0.119205 0.519598
2.44 0.114079 0.505580
2.45 0.109092 0.491842
2.46 0.104242 0.478382
2.47 0.099524 0.465195
2.48 0.094937 0.452280
2.49 0.090477 0.439634
2.50 0.086143 0.427253
2.51 0.081931 0.415134
2.52 0.077840 0.403273
2.53 0.073865 0.391668
2.54 0.070005 0.380315
2.55 0.066258 0.369209
2.56 0.062620 0.358349
2.57 0.059090 0.347729
2.58 0.055665 0.337346
2.59 0.052343 0.327196
2.60 0.049120 0.317276
2.61 0.045996 0.307582
2.62 0.042968 0.298110
2.63 0.040033 0.288856
2.64 0.037190 0.279818
2.65 0.034436 0.270990
2.66 0.031770 0.262371
2.67 0.029188 0.253956
2.68 0.026690 0.245741
2.69 0.024273 0.237724
2.70 0.021935 0.229901
2.71 0.019674 0.222269
2.72 0.017489 0.214825
2.73 0.015377 0.207565
2.74 0.013337 0.200486
2.75 0.011367 0.193586
2.76 0.009465 0.186861
2.77 0.007629 0.180308
2.78 0.005858 0.173925
2.79 0.004150 0.167708
2.80 0.002503 0.161655
2.81 0.000916 0.155763
2.82 -0.000613 0.150029
2.83 -0.002085 0.144451
2.84 -0.003502 0.139025
2.85 -0.004866 0.133750
2.86 -0.006178 0.128622
2.87 -0.007439 0.123638
2.88 -0.008651 0.118797
2.89 -0.009815 0.114095
2.90 -0.010933 0.109529
2.91 -0.012006 0.105098
2.92 -0.013036 0.100799
2.93 -0.014023 0.096628
2.94 -0.014969 0.092583
2.95 -0.015875 0.088662
2.96 -0.016742 0.084862
2.97 -0.017572 0.081180
2.98 -0.018366 0.077613
2.99 -0.019125 0.074160
3.00 -0.019850 0.070817
3.01 -0.020542 0.067582
3.02 -0.021202 0.064452
3.03 -0.021831 0.061424
3.04 -0.022431 0.058496
3.05 -0.023001 0.055665
3.06 -0.023544 0.052928
3.07 -0.024060 0.050283
3.08 -0.024550 0.047728
3.09 -0.025015 0.045259
3.10 -0.025456 0.042875
3.11 -0.025873 0.040572
3.12 -0.026267 0.038348
3.13 -0.026640 0.036200
3.14 -0.026992 0.034126
3.15 -0.027323 0.032124
3.16 -0.027634 0.030191
3.17 -0.027927 0.028325
3.18 -0.028201 0.026522
3.19 -0.028458 0.024782
3.20 -0.028697 0.023101
3.21 -0.028920 0.021478
3.22 -0.029127 0.019910
3.23 -0.029318 0.018394
3.24 -0.029495 0.016930
3.25 -0.029657 0.015514
3.26 -0.029805 0.014145
3.27 -0.029940 0.012820
3.28 -0.030062 0.011538
3.29 -0.030171 0.010297
3.30 -0.030268 0.009095
3.31 -0.030353 0.007930
3.32 -0.030426 0.006800
3.33 -0.030489 0.005705
3.34 -0.030541 0.004641
3.35 -0.030582 0.003608
3.36 -0.030613 0.002604
3.37 -0.030634 0.001628
3.38 -0.030646 0.000679
3.39 -0.030648 -0.000246
3.40 -0.030641 -0.001147
3.41 -0.030625 -0.002025
3.42 -0.030600 -0.002881
3.43 -0.030567 -0.003717
3.44 -0.030526 -0.004534
3.45 -0.030477 -0.005331
3.46 -0.030419 -0.006111
3.47 -0.030354 -0.006873
3.48 -0.030282 -0.007619
3.49 -0.030202 -0.008350
3.50 -0.030115 -0.009065
3.51 -0.030021 -0.009765
3.52 -0.029920 -0.010451
3.53 -0.029812 -0.011123
3.54 -0.029697 -0.011781
3.55 -0.029576 -0.012427
3.56 -0.029449 -0.013059
3.57 -0.029315 -0.013678
3.58 -0.029175 -0.014284
3.59 -0.029030 -0.014878
3.60 -0.028878 -0.015459
3.61 -0.028720 -0.016027
3.62 -0.028557 -0.016582
3.63 -0.028389 -0.017125
3.64 -0.028215 -0.017654
3.65 -0.028036 -0.018171
3.66 -0.027852 -0.018674
3.67 -0.027662 -0.019164
3.68 -0.027468 -0.019641
3.69 -0.027270 -0.020104
3.70 -0.027066 -0.020552
3.71 -0.026859 -0.020987
3.72 -0.026647 -0.021407
3.73 -0.026431 -0.021813
3.74 -0.026210 -0.022204
3.75 -0.025986 -0.022581
3.76 -0.025759 -0.022942
3.77 -0.025528 -0.023288
3.78 -0.025293 -0.023619
3.79 -0.025055 -0.023934
3.80 -0.024815 -0.024234
3.81 -0.024571 -0.024519
3.82 -0.024324 -0.024787
3.83 -0.024075 -0.025041
3.84 -0.023823 -0.025279
3.85 -0.023570 -0.025501
3.86 -0.023313 -0.025708
3.87 -0.023055 -0.025900
3.88 -0.022795 -0.026077
3.89 -0.022534 -0.026240
3.90 -0.022271 -0.026387
3.91 -0.022006 -0.026521
3.92 -0.021740 -0.026640
3.93 -0.021473 -0.026746
3.94 -0.021205 -0.026838
3.95 -0.020937 -0.026918
3.96 -0.020667 -0.026984
3.97 -0.020397 -0.027039
3.98 -0.020126 -0.027082
3.99 -0.019855 -0.027113
4.00 -0.019584 -0.027134
4.01 -0.019313 -0.027144
4.02 -0.019041 -0.027144
4.03 -0.018770 -0.027133
4.04 -0.018499 -0.027112
4.05 -0.018228 -0.027081
4.06 -0.017957 -0.027041
4.07 -0.017687 -0.026990
4.08 -0.017417 -0.026929
4.09 -0.017148 -0.026859
4.10 -0.016880 -0.026779
4.11 -0.016613 -0.026690
4.12 -0.016346 -0.026592
4.13 -0.016081 -0.026484
4.14 -0.015817 -0.026368
4.15 -0.015554 -0.026243
4.16 -0.015292 -0.026109
4.17 -0.015032 -0.025966
4.18 -0.014773 -0.025815
4.19 -0.014515 -0.025657
4.20 -0.014260 -0.025490
4.21 -0.014006 -0.025315
4.22 -0.013753 -0.025133
4.23 -0.013503 -0.024943
4.24 -0.013254 -0.024746
4.25 -0.013008 -0.024542
4.26 -0.012764 -0.024331
4.27 -0.012521 -0.024114
4.28 -0.012281 -0.023890
4.29 -0.012044 -0.023660
4.30 -0.011808 -0.023424
4.31 -0.011575 -0.023183
4.32 -0.011345 -0.022936
4.33 -0.011116 -0.022684
4.34 -0.010891 -0.022426
4.35 -0.010668 -0.022164
4.36 -0.010448 -0.021898
4.37 -0.010230 -0.021627
4.38 -0.010015 -0.021352
4.39 -0.009803 -0.021074
4.40 -0.009594 -0.020791
4.41 -0.009387 -0.020506
4.42 -0.009184 -0.020217
4.43 -0.008983 -0.019926
4.44 -0.008785 -0.019632
4.45 -0.008590 -0.019336
4.46 -0.008398 -0.019037
4.47 -0.008209 -0.018737
4.48 -0.008024 -0.018435
4.49 -0.007841 -0.018132
4.50 -0.007661 -0.017828
4.51 -0.007484 -0.017523
4.52 -0.007310 -0.017217
4.53 -0.007140 -0.016911
4.54 -0.006972 -0.016605
4.55 -0.006808 -0.016298
4.56 -0.006646 -0.015993
4.57 -0.006488 -0.015687
4.58 -0.006333 -0.015382
4.59 -0.006180 -0.015079
4.60 -0.006031 -0.014776
4.61 -0.005885 -0.014475
4.62 -0.005741 -0.014175
4.63 -0.005601 -0.013877
4.64 -0.005464 -0.013581
4.65 -0.005330 -0.013287
4.66 -0.005198 -0.012995
4.67 -0.005070 -0.012706
4.68 -0.004944 -0.012420
4.69 -0.004821 -0.012136
4.70 -0.004701 -0.011855
4.71 -0.004584 -0.011578
4.72 -0.004470 -0.011303
4.73 -0.004358 -0.011032
4.74 -0.004249 -0.010765
4.75 -0.004143 -0.010501
4.76 -0.004039 -0.010242
4.77 -0.003938 -0.009986
4.78 -0.003839 -0.009734
4.79 -0.003743 -0.009486
4.80 -0.003650 -0.009242
4.81 -0.003558 -0.009003
4.82 -0.003470 -0.008768
4.83 -0.003383 -0.008538
4.84 -0.003299 -0.008312
4.85 -0.003217 -0.008091
4.86 -0.003137 -0.007874
4.87 -0.003059 -0.007662
4.88 -0.002984 -0.007455
4.89 -0.002910 -0.007252
4.90 -0.002839 -0.007055
4.91 -0.002769 -0.006862
4.92 -0.002701 -0.006674
4.93 -0.002636 -0.006491
4.94 -0.002572 -0.006312
4.95 -0.002509 -0.006139
4.96 -0.002449 -0.005970
4.97 -0.002390 -0.005806
4.98 -0.002333 -0.005647
4.99 -0.002277 -0.005493
5.00 -0.002223 -0.005344
5.01 -0.002170 -0.005199
5.02 -0.002119 -0.005059
5.03 -0.002069 -0.004923
5.04 -0.002020 -0.004792
5.05 -0.001973 -0.004666
5.06 -0.001927 -0.004544
5.07 -0.001882 -0.004426
5.08 -0.001838 -0.004313
5.09 -0.001796 -0.004204
5.10 -0.001754 -0.004099
5.11 -0.001714 -0.003998
5.12 -0.001674 -0.003901
5.13 -0.001636 -0.003809
5.14 -0.001598 -0.003719
5.15 -0.001561 -0.003634
5.16 -0.001525 -0.003552
5.17 -0.001490 -0.003474
5.18 -0.001456 -0.003399
5.19 -0.001422 -0.003327
5.20 -0.001389 -0.003259
5.21 -0.001357 -0.003193
5.22 -0.001326 -0.003131
5.23 -0.001295 -0.003072
5.24 -0.001264 -0.003015
5.25 -0.001234 -0.002961
5.26 -0.001205 -0.002909
5.27 -0.001176 -0.002860
5.28 -0.001148 -0.002813
5.29 -0.001120 -0.002768
5.30 -0.001092 -0.002725
5.31 -0.001065 -0.002684
5.32 -0.001039 -0.002645
5.33 -0.001012 -0.002608
5.34 -0.000986 -0.002572
5.35 -0.000961 -0.002538
5.36 -0.000936 -0.002505
5.37 -0.000911 -0.002473
5.38 -0.000886 -0.002443
5.39 -0.000862 -0.002413
5.40 -0.000838 -0.002384
5.41 -0.000814 -0.002357
5.42 -0.000791 -0.002329
5.43 -0.000768 -0.002303
5.44 -0.000745 -0.002277
5.45 -0.000722 -0.002251
5.46 -0.000700 -0.002226
5.47 -0.000678 -0.002201
5.48 -0.000656 -0.002176
5.49 -0.000634 -0.002151
5.50 -0.000613 -0.002126
5.51 -0.000592 -0.002101
5.52 -0.000571 -0.002076
5.53 -0.000550 -0.002050
5.54 -0.000530 -0.002024
5.55 -0.000510 -0.001998
5.56 -0.000490 -0.001971
5.57 -0.000470 -0.001944
5.58 -0.000451 -0.001916
5.59 -0.000432 -0.001888
5.60 -0.000413 -0.001858
5.61 -0.000395 -0.001828
5.62 -0.000377 -0.001798
5.63 -0.000359 -0.001766
5.64 -0.000341 -0.001734
5.65 -0.000324 -0.001701
5.66 -0.000307 -0.001667
5.67 -0.000291 -0.001632
5.68 -0.000275 -0.001596
5.69 -0.000259 -0.001559
5.70 -0.000243 -0.001521
5.71 -0.000228 -0.001482
5.72 -0.000214 -0.001442
5.73 -0.000200 -0.001401
5.74 -0.000186 -0.001359
5.75 -0.000172 -0.001316
5.76 -0.000159 -0.001273
5.77 -0.000147 -0.001228
5.78 -0.000135 -0.001182
5.79 -0.000123 -0.001136
5.80 -0.000112 -0.001088
5.81 -0.000102 -0.001040
5.82 -0.000091 -0.000990
5.83 -0.000082 -0.000940
5.84 -0.000073 -0.000889
5.85 -0.000064 -0.000838
5.86 -0.000056 -0.000785
5.87 -0.000048 -0.000732
5.88 -0.000041 -0.000678
5.89 -0.000035 -0.000624
5.90 -0.000029 -0.000569
5.91 -0.000023 -0.000514
5.92 -0.000018 -0.000458
5.93 -0.000014 -0.000402
5.94 -0.000010 -0.000345
5.95 -0.000007 -0.000288
5.96 -0.000005 -0.000231
5.97 -0.000003 -0.000173
5.98 -0.000001 -0.000116
5.99 -0.000000 -0.000058
6.00 0.000000 -0.000000
