Distance (Å)  Energy (eV)  Force (eV/Å)
0.10 0.365546 3.629922
0.11 0.335507 2.438397
0.12 0.315809 1.539172
0.13 0.304130 0.819431
0.14 0.299070 0.205932
0.15 0.299806 -0.345375
0.16 0.305848 -0.857649
0.17 0.316859 -1.339691
0.18 0.332540 -1.790994
0.19 0.352557 -2.205585
0.20 0.376501 -2.574882
0.21 0.403873 -2.889757
0.22 0.434087 -3.141970
0.23 0.466482 -3.325082
0.24 0.500345 -3.434980
0.25 0.534932 -3.470076
0.26 0.569500 -3.431282
0.27 0.603322 -3.321803
0.28 0.635717 -3.146820
0.29 0.666063 -2.913117
0.30 0.693810 -2.628665
0.31 0.718496 -2.302232
0.32 0.739745 -1.943004
0.33 0.757278 -1.560256
0.34 0.770903 -1.163079
0.35 0.780520 -0.760142
0.36 0.786113 -0.359520
0.37 0.787743 0.031441
0.38 0.785538 0.406221
0.39 0.779691 0.759185
0.40 0.770443 1.085617
0.41 0.758080 1.381728
0.42 0.742919 1.644650
0.43 0.725304 1.872406
0.44 0.705592 2.063870
0.45 0.684149 2.218715
0.46 0.661339 2.337350
0.47 0.637519 2.420848
0.48 0.613034 2.470860
0.49 0.588206 2.489541
0.50 0.563339 2.479448
0.51 0.538704 2.443460
0.52 0.514545 2.384683
0.53 0.491075 2.306366
0.54 0.468472 2.211816
0.55 0.446882 2.104322
0.56 0.426418 1.987092
0.57 0.407163 1.863184
0.58 0.389167 1.735463
0.59 0.372457 1.606557
0.60 0.357032 1.478821
0.61 0.342870 1.354319
0.62 0.329929 1.234809
0.63 0.318152 1.121731
0.64 0.307469 1.016213
0.65 0.297800 0.919074
0.66 0.289058 0.830839
0.67 0.281153 0.751752
0.68 0.273993 0.681800
0.69 0.267487 0.620732
0.70 0.261550 0.568090
0.71 0.256099 0.523230
0.72 0.251062 0.485355
0.73 0.246372 0.453541
0.74 0.241974 0.426765
0.75 0.237824 0.403933
0.76 0.233886 0.383906
0.77 0.230140 0.365527
0.78 0.226574 0.347641
0.79 0.223189 0.329119
0.80 0.219997 0.308877
0.81 0.217021 0.285895
0.82 0.214292 0.259230
0.83 0.211851 0.228030
0.84 0.209749 0.191544
0.85 0.208040 0.149133
0.86 0.206788 0.100274
0.87 0.206058 0.044564
0.88 0.205920 -0.018277
0.89 0.206448 -0.088403
0.90 0.207713 -0.165848
0.91 0.209789 -0.250526
0.92 0.212747 -0.342237
0.93 0.216656 -0.440670
0.94 0.221581 -0.545413
0.95 0.227583 -0.655958
0.96 0.234718 -0.771711
0.97 0.243033 -0.892002
0.98 0.252570 -1.016091
0.99 0.263365 -1.143184
1.00 0.275441 -1.272437
1.01 0.288818 -1.402969
1.02 0.303502 -1.533876
1.03 0.319493 -1.664233
1.04 0.336782 -1.793115
1.05 0.355348 -1.919598
1.06 0.375163 -2.042772
1.07 0.396189 -2.161752
1.08 0.418381 -2.275685
1.09 0.441683 -2.383758
1.10 0.466034 -2.485208
1.11 0.491363 -2.579323
1.12 0.517594 -2.665456
1.13 0.544643 -2.743026
1.14 0.572424 -2.811521
1.15 0.600842 -2.870505
1.16 0.629801 -2.919618
1.17 0.659201 -2.958578
1.18 0.688938 -2.987183
1.19 0.718909 -3.005307
1.20 0.749009 -3.012903
1.21 0.779132 -3.009998
1.22 0.809174 -2.996691
1.23 0.839032 -2.973148
1.24 0.868604 -2.939602
1.25 0.897792 -2.896341
1.26 0.926500 -2.843709
1.27 0.954636 -2.782099
1.28 0.982113 -2.711944
1.29 1.008848 -2.633717
1.30 1.034762 -2.547920
1.31 1.059783 -2.455081
1.32 1.083842 -2.355748
1.33 1.106878 -2.250484
1.34 1.128834 -2.139861
1.35 1.149659 -2.024455
1.36 1.169309 -1.904844
1.37 1.187744 -1.781602
1.38 1.204931 -1.655296
1.39 1.220842 -1.526483
1.40 1.235454 -1.395707
1.41 1.248751 -1.263497
1.42 1.260721 -1.130363
1.43 1.271357 -0.996796
1.44 1.280657 -0.863268
1.45 1.288624 -0.730228
1.46 1.295265 -0.598101
1.47 1.300590 -0.467290
1.48 1.304616 -0.338174
1.49 1.307361 -0.211107
1.50 1.308846 -0.086418
1.51 1.309098 0.035587
1.52 1.308144 0.154627
1.53 1.306016 0.270447
1.54 1.302747 0.382812
1.55 1.298372 0.491515
1.56 1.292929 0.596369
1.57 1.286458 0.697210
1.58 1.278999 0.793897
1.59 1.270594 0.886311
1.60 1.261287 0.974352
1.61 1.251122 1.057942
1.62 1.240144 1.137020
1.63 1.228397 1.211548
1.64 1.215928 1.281502
1.65 1.202782 1.346876
1.66 1.189006 1.407684
1.67 1.174644 1.463950
1.68 1.159742 1.515718
1.69 1.144344 1.563042
1.70 1.128495 1.605990
1.71 1.112239 1.644645
1.72 1.095616 1.679097
1.73 1.078670 1.709449
1.74 1.061441 1.735811
1.75 1.043967 1.758303
1.76 1.026287 1.777053
1.77 1.008438 1.792194
1.78 0.990455 1.803865
1.79 0.972372 1.812209
1.80 0.954221 1.817374
1.81 0.936034 1.819511
1.82 0.917841 1.818771
1.83 0.899668 1.815309
1.84 0.881543 1.809279
1.85 0.863491 1.800834
1.86 0.845534 1.790129
1.87 0.827695 1.777314
1.88 0.809994 1.762539
1.89 0.792450 1.745950
1.90 0.775081 1.727693
1.91 0.757901 1.707906
1.92 0.740927 1.686726
1.93 0.724171 1.664285
1.94 0.707645 1.640710
1.95 0.691360 1.616123
1.96 0.675326 1.590642
1.97 0.659550 1.564378
1.98 0.644041 1.537439
1.99 0.628803 1.509926
2.00 0.613844 1.481935
2.01 0.599166 1.453556
2.02 0.584773 1.424874
2.03 0.570669 1.395968
2.04 0.556855 1.366913
2.05 0.543331 1.337779
2.06 0.530099 1.308628
2.07 0.517158 1.279520
2.08 0.504508 1.250509
2.09 0.492148 1.221646
2.10 0.480075 1.192975
2.11 0.468287 1.164537
2.12 0.456783 1.136369
2.13 0.445559 1.108506
2.14 0.434612 1.080975
2.15 0.423938 1.053804
2.16 0.413535 1.027016
2.17 0.403397 1.000630
2.18 0.393521 0.974664
2.19 0.383902 0.949133
2.20 0.374536 0.924049
2.21 0.365419 0.899421
2.22 0.356546 0.875259
2.23 0.347913 0.851567
2.24 0.339514 0.828351
2.25 0.331344 0.805613
2.26 0.323400 0.783356
2.27 0.315675 0.761578
2.28 0.308166 0.740280
2.29 0.300868 0.719460
2.30 0.293776 0.699114
2.31 0.286884 0.679239
2.32 0.280189 0.659832
2.33 0.273686 0.640886
2.34 0.267370 0.622397
2.35 0.261237 0.604360
2.36 0.255281 0.586767
2.37 0.249500 0.569612
2.38 0.243888 0.552890
2.39 0.238441 0.536592
2.40 0.233155 0.520712
2.41 0.228025 0.505242
2.42 0.223048 0.490176
2.43 0.218220 0.475506
2.44 0.213537 0.461225
2.45 0.208994 0.447325
2.46 0.204589 0.433799
2.47 0.200317 0.420641
2.48 0.196175 0.407841
2.49 0.192159 0.395395
2.50 0.188266 0.383294
2.51 0.184492 0.371531
2.52 0.180834 0.360100
2.53 0.177289 0.348994
2.54 0.173853 0.338206
2.55 0.170524 0.327730
2.56 0.167298 0.317559
2.57 0.164172 0.307686
2.58 0.161143 0.298106
2.59 0.158209 0.288812
2.60 0.155366 0.279798
2.61 0.152612 0.271058
2.62 0.149944 0.262587
2.63 0.147359 0.254378
2.64 0.144855 0.246426
2.65 0.142430 0.238725
2.66 0.140080 0.231271
2.67 0.137804 0.224056
2.68 0.135598 0.217077
2.69 0.133461 0.210328
2.70 0.131391 0.203803
2.71 0.129385 0.197499
2.72 0.127440 0.191409
2.73 0.125556 0.185529
2.74 0.123729 0.179855
2.75 0.121958 0.174381
2.76 0.120241 0.169103
2.77 0.118575 0.164017
2.78 0.116960 0.159117
2.79 0.115392 0.154400
2.80 0.113871 0.149862
2.81 0.112394 0.145497
2.82 0.110961 0.141302
2.83 0.109568 0.137273
2.84 0.108215 0.133405
2.85 0.106899 0.129695
2.86 0.105620 0.126139
2.87 0.104376 0.122733
2.88 0.103165 0.119472
2.89 0.101986 0.116354
2.90 0.100838 0.113375
2.91 0.099718 0.110531
2.92 0.098626 0.107818
2.93 0.097561 0.105232
2.94 0.096521 0.102772
2.95 0.095506 0.100432
2.96 0.094512 0.098209
2.97 0.093541 0.096101
2.98 0.092590 0.094103
2.99 0.091659 0.092213
3.00 0.090745 0.090428
3.01 0.089850 0.088743
3.02 0.088970 0.087157
3.03 0.088106 0.085665
3.04 0.087257 0.084265
3.05 0.086421 0.082954
3.06 0.085597 0.081728
3.07 0.084786 0.080585
3.08 0.083985 0.079522
3.09 0.083195 0.078535
3.10 0.082414 0.077622
3.11 0.081642 0.076780
3.12 0.080878 0.076007
3.13 0.080122 0.075298
3.14 0.079372 0.074652
3.15 0.078629 0.074066
3.16 0.077891 0.073537
3.17 0.077158 0.073062
3.18 0.076429 0.072639
3.19 0.075705 0.072266
3.20 0.074984 0.071938
3.21 0.074266 0.071655
3.22 0.073551 0.071413
3.23 0.072838 0.071210
3.24 0.072126 0.071043
3.25 0.071417 0.070911
3.26 0.070708 0.070810
3.27 0.070000 0.070739
3.28 0.069293 0.070695
3.29 0.068586 0.070676
3.30 0.067880 0.070680
3.31 0.067173 0.070704
3.32 0.066465 0.070747
3.33 0.065758 0.070806
3.34 0.065049 0.070880
3.35 0.064340 0.070966
3.36 0.063630 0.071062
3.37 0.062919 0.071168
3.38 0.062207 0.071280
3.39 0.061493 0.071398
3.40 0.060779 0.071519
3.41 0.060063 0.071643
3.42 0.059346 0.071766
3.43 0.058627 0.071889
3.44 0.057908 0.072009
3.45 0.057187 0.072125
3.46 0.056465 0.072235
3.47 0.055743 0.072340
3.48 0.055019 0.072436
3.49 0.054294 0.072524
3.50 0.053568 0.072601
3.51 0.052842 0.072667
3.52 0.052115 0.072722
3.53 0.051388 0.072763
3.54 0.050660 0.072791
3.55 0.049932 0.072804
3.56 0.049204 0.072801
3.57 0.048476 0.072783
3.58 0.047748 0.072748
3.59 0.047021 0.072695
3.60 0.046294 0.072625
3.61 0.045568 0.072536
3.62 0.044844 0.072428
3.63 0.044120 0.072302
3.64 0.043398 0.072156
3.65 0.042677 0.071989
3.66 0.041958 0.071803
3.67 0.041241 0.071597
3.68 0.040526 0.071370
3.69 0.039814 0.071123
3.70 0.039104 0.070855
3.71 0.038397 0.070566
3.72 0.037692 0.070256
3.73 0.036991 0.069926
3.74 0.036294 0.069574
3.75 0.035600 0.069203
3.76 0.034910 0.068810
3.77 0.034224 0.068398
3.78 0.033542 0.067965
3.79 0.032865 0.067512
3.80 0.032192 0.067039
3.81 0.031524 0.066547
3.82 0.030861 0.066035
3.83 0.030203 0.065504
3.84 0.029551 0.064955
3.85 0.028904 0.064386
3.86 0.028263 0.063800
3.87 0.027628 0.063196
3.88 0.027000 0.062574
3.89 0.026377 0.061936
3.90 0.025761 0.061280
3.91 0.025151 0.060608
3.92 0.024549 0.059921
3.93 0.023953 0.059218
3.94 0.023364 0.058499
3.95 0.022783 0.057766
3.96 0.022209 0.057019
3.97 0.021643 0.056258
3.98 0.021084 0.055484
3.99 0.020533 0.054697
4.00 0.019990 0.053897
4.01 0.019455 0.053086
4.02 0.018928 0.052263
4.03 0.018410 0.051430
4.04 0.017900 0.050587
4.05 0.017398 0.049734
4.06 0.016905 0.048873
4.07 0.016421 0.048004
4.08 0.015945 0.047128
4.09 0.015478 0.046245
4.10 0.015020 0.045357
4.11 0.014571 0.044463
4.12 0.014131 0.043565
4.13 0.013700 0.042663
4.14 0.013278 0.041757
4.15 0.012865 0.040849
4.16 0.012461 0.039940
4.17 0.012066 0.039029
4.18 0.011680 0.038117
4.19 0.011304 0.037206
4.20 0.010936 0.036295
4.21 0.010578 0.035385
4.22 0.010228 0.034478
4.23 0.009888 0.033573
4.24 0.009557 0.032671
4.25 0.009235 0.031772
4.26 0.008921 0.030879
4.27 0.008617 0.029990
4.28 0.008322 0.029106
4.29 0.008035 0.028229
4.30 0.007757 0.027358
4.31 0.007488 0.026494
4.32 0.007227 0.025637
4.33 0.006975 0.024789
4.34 0.006731 0.023949
4.35 0.006496 0.023118
4.36 0.006269 0.022297
4.37 0.006050 0.021486
4.38 0.005839 0.020685
4.39 0.005636 0.019895
4.40 0.005441 0.019116
4.41 0.005254 0.018349
4.42 0.005074 0.017594
4.43 0.004902 0.016851
4.44 0.004737 0.016120
4.45 0.004580 0.015403
4.46 0.004429 0.014699
4.47 0.004286 0.014009
4.48 0.004149 0.013332
4.49 0.004019 0.012670
4.50 0.003895 0.012022
4.51 0.003778 0.011389
4.52 0.003668 0.010770
4.53 0.003563 0.010167
4.54 0.003464 0.009579
4.55 0.003371 0.009006
4.56 0.003284 0.008449
4.57 0.003202 0.007908
4.58 0.003126 0.007382
4.59 0.003055 0.006872
4.60 0.002988 0.006379
4.61 0.002927 0.005901
4.62 0.002870 0.005439
4.63 0.002818 0.004994
4.64 0.002770 0.004565
4.65 0.002727 0.004152
4.66 0.002687 0.003755
4.67 0.002652 0.003374
4.68 0.002620 0.003010
4.69 0.002591 0.002661
4.70 0.002566 0.002329
4.71 0.002545 0.002012
4.72 0.002526 0.001711
4.73 0.002510 0.001426
4.74 0.002498 0.001157
4.75 0.002487 0.000903
4.76 0.002479 0.000664
4.77 0.002474 0.000440
4.78 0.002471 0.000232
4.79 0.002469 0.000038
4.80 0.002470 -0.000142
4.81 0.002472 -0.000307
4.82 0.002476 -0.000458
4.83 0.002481 -0.000595
4.84 0.002488 -0.000718
4.85 0.002495 -0.000828
4.86 0.002504 -0.000925
4.87 0.002514 -0.001009
4.88 0.002524 -0.001081
4.89 0.002535 -0.001140
4.90 0.002547 -0.001187
4.91 0.002559 -0.001223
4.92 0.002572 -0.001247
4.93 0.002584 -0.001260
4.94 0.002597 -0.001263
4.95 0.002609 -0.001255
4.96 0.002622 -0.001237
4.97 0.002634 -0.001210
4.98 0.002646 -0.001173
4.99 0.002657 -0.001127
5.00 0.002668 -0.001073
5.01 0.002679 -0.001010
5.02 0.002689 -0.000939
5.03 0.002698 -0.000861
5.04 0.002706 -0.000776
5.05 0.002713 -0.000684
5.06 0.002720 -0.000586
5.07 0.002725 -0.000482
5.08 0.002729 -0.000372
5.09 0.002732 -0.000256
5.10 0.002734 -0.000136
5.11 0.002735 -0.000012
5.12 0.002734 0.000117
5.13 0.002733 0.000249
5.14 0.002729 0.000385
5.15 0.002725 0.000524
5.16 0.002719 0.000666
5.17 0.002712 0.000809
5.18 0.002703 0.000955
5.19 0.002692 0.001102
5.20 0.002681 0.001251
5.21 0.002667 0.001400
5.22 0.002653 0.001550
5.23 0.002636 0.001700
5.24 0.002619 0.001849
5.25 0.002599 0.001999
5.26 0.002579 0.002147
5.27 0.002557 0.002294
5.28 0.002533 0.002440
5.29 0.002508 0.002584
5.30 0.002481 0.002726
5.31 0.002453 0.002866
5.32 0.002424 0.003003
5.33 0.002393 0.003137
5.34 0.002361 0.003268
5.35 0.002328 0.003396
5.36 0.002293 0.003519
5.37 0.002257 0.003639
5.38 0.002220 0.003755
5.39 0.002182 0.003867
5.40 0.002143 0.003974
5.41 0.002103 0.004076
5.42 0.002062 0.004173
5.43 0.002019 0.004265
5.44 0.001976 0.004352
5.45 0.001932 0.004433
5.46 0.001888 0.004509
5.47 0.001842 0.004578
5.48 0.001796 0.004642
5.49 0.001749 0.004700
5.50 0.001702 0.004752
5.51 0.001654 0.004797
5.52 0.001606 0.004837
5.53 0.001558 0.004869
5.54 0.001509 0.004896
5.55 0.001460 0.004915
5.56 0.001411 0.004929
5.57 0.001361 0.004935
5.58 0.001312 0.004935
5.59 0.001263 0.004928
5.60 0.001213 0.004915
5.61 0.001164 0.004895
5.62 0.001116 0.004868
5.63 0.001067 0.004835
5.64 0.001019 0.004795
5.65 0.000971 0.004749
5.66 0.000924 0.004696
5.67 0.000877 0.004637
5.68 0.000831 0.004571
5.69 0.000786 0.004499
5.70 0.000741 0.004421
5.71 0.000697 0.004337
5.72 0.000654 0.004247
5.73 0.000612 0.004152
5.74 0.000571 0.004050
5.75 0.000531 0.003943
5.76 0.000493 0.003831
5.77 0.000455 0.003713
5.78 0.000418 0.003590
5.79 0.000383 0.003462
5.80 0.000349 0.003330
5.81 0.000317 0.003193
5.82 0.000285 0.003051
5.83 0.000256 0.002906
5.84 0.000227 0.002756
5.85 0.000200 0.002603
5.86 0.000175 0.002446
5.87 0.000151 0.002285
5.88 0.000129 0.002122
5.89 0.000109 0.001955
5.90 0.000090 0.001786
5.91 0.000073 0.001615
5.92 0.000058 0.001441
5.93 0.000045 0.001265
5.94 0.000033 0.001088
5.95 0.000023 0.000909
5.96 0.000015 0.000729
5.97 0.000008 0.000547
5.98 0.000004 0.000365
5.99 0.000001 0.000183
6.00 0.000000 0.000000
