Distance (Å)  Energy (eV)  Force (eV/Å)
0.10 0.745244 6.616797
0.11 0.686643 5.157102
0.12 0.641231 3.960176
0.13 0.606880 2.931837
0.14 0.582246 2.008700
0.15 0.566491 1.150818
0.16 0.559088 0.335649
0.17 0.559670 -0.446780
0.18 0.567920 -1.197722
0.19 0.583505 -1.912726
0.20 0.606029 -2.583990
0.21 0.635008 -3.202162
0.22 0.669863 -3.757707
0.23 0.709924 -4.241907
0.24 0.754439 -4.647576
0.25 0.802596 -4.969508
0.26 0.853540 -5.204726
0.27 0.906399 -5.352541
0.28 0.960304 -5.414463
0.29 1.014413 -5.394001
0.30 1.067927 -5.296372
0.31 1.120105 -5.128162
0.32 1.170280 -4.896969
0.33 1.217862 -4.611054
0.34 1.262347 -4.279015
0.35 1.303318 -3.909505
0.36 1.340441 -3.510997
0.37 1.373468 -3.091602
0.38 1.402229 -2.658933
0.39 1.426626 -2.220008
0.40 1.446629 -1.781197
0.41 1.462269 -1.348195
0.42 1.473629 -0.926011
0.43 1.480840 -0.518986
0.44 1.484072 -0.130813
0.45 1.483530 0.235430
0.46 1.479445 0.577245
0.47 1.472073 0.892676
0.48 1.461684 1.180267
0.49 1.448563 1.439021
0.50 1.433002 1.668365
0.51 1.415295 1.868104
0.52 1.395738 2.038389
0.53 1.374624 2.179678
0.54 1.352239 2.292698
0.55 1.328861 2.378412
0.56 1.304758 2.437983
0.57 1.280184 2.472742
0.58 1.255381 2.484158
0.59 1.230573 2.473804
0.60 1.205972 2.443329
0.61 1.181768 2.394435
0.62 1.158139 2.328844
0.63 1.135241 2.248283
0.64 1.113217 2.154458
0.65 1.092191 2.049039
0.66 1.072270 1.933641
0.67 1.053546 1.809815
0.68 1.036096 1.679033
0.69 1.019984 1.542683
0.70 1.005257 1.402060
0.71 0.991953 1.258367
0.72 0.980096 1.112708
0.73 0.969702 0.966089
0.74 0.960775 0.819424
0.75 0.953311 0.673531
0.76 0.947299 0.529140
0.77 0.942721 0.386899
0.78 0.939552 0.247373
0.79 0.937763 0.111056
0.80 0.937319 -0.021624
0.81 0.938182 -0.150302
0.82 0.940310 -0.274668
0.83 0.943660 -0.394460
0.84 0.948184 -0.509460
0.85 0.953833 -0.619488
0.86 0.960556 -0.724396
0.87 0.968303 -0.824067
0.88 0.977020 -0.918405
0.89 0.986653 -1.007336
0.90 0.997148 -1.090804
0.91 1.008451 -1.168768
0.92 1.020505 -1.241196
0.93 1.033256 -1.308069
0.94 1.046648 -1.369376
0.95 1.060625 -1.425113
0.96 1.075132 -1.475283
0.97 1.090112 -1.519895
0.98 1.105511 -1.558961
0.99 1.121273 -1.592501
1.00 1.137343 -1.620539
1.01 1.153666 -1.643104
1.02 1.170187 -1.660232
1.03 1.186852 -1.671961
1.04 1.203608 -1.678340
1.05 1.220401 -1.679422
1.06 1.237179 -1.675267
1.07 1.253889 -1.665942
1.08 1.270481 -1.651524
1.09 1.286903 -1.632096
1.10 1.303107 -1.607751
1.11 1.319042 -1.578592
1.12 1.334663 -1.544727
1.13 1.349921 -1.506279
1.14 1.364773 -1.463376
1.15 1.379175 -1.416159
1.16 1.393083 -1.364776
1.17 1.406457 -1.309385
1.18 1.419258 -1.250156
1.19 1.431448 -1.187265
1.20 1.442991 -1.120897
1.21 1.453855 -1.051248
1.22 1.464006 -0.978520
1.23 1.473416 -0.902922
1.24 1.482056 -0.824673
1.25 1.489901 -0.743994
1.26 1.496928 -0.661116
1.27 1.503117 -0.576271
1.28 1.508448 -0.489698
1.29 1.512906 -0.401639
1.30 1.516476 -0.312336
1.31 1.519149 -0.222036
1.32 1.520915 -0.130985
1.33 1.521767 -0.039429
1.34 1.521702 0.052387
1.35 1.520719 0.144219
1.36 1.518819 0.235828
1.37 1.516004 0.326977
1.38 1.512282 0.417433
1.39 1.507659 0.506971
1.40 1.502146 0.595369
1.41 1.495756 0.682416
1.42 1.488503 0.767907
1.43 1.480403 0.851643
1.44 1.471476 0.933440
1.45 1.461742 1.013118
1.46 1.451222 1.090513
1.47 1.439940 1.165467
1.48 1.427921 1.237836
1.49 1.415192 1.307489
1.50 1.401781 1.374306
1.51 1.387716 1.438178
1.52 1.373027 1.499010
1.53 1.357746 1.556721
1.54 1.341903 1.611241
1.55 1.325532 1.662514
1.56 1.308664 1.710495
1.57 1.291333 1.755155
1.58 1.273572 1.796473
1.59 1.255415 1.834443
1.60 1.236894 1.869072
1.61 1.218044 1.900374
1.62 1.198898 1.928377
1.63 1.179488 1.953120
1.64 1.159846 1.974650
1.65 1.140005 1.993025
1.66 1.119996 2.008310
1.67 1.099849 2.020579
1.68 1.079594 2.029913
1.69 1.059260 2.036402
1.70 1.038875 2.040138
1.71 1.018466 2.041223
1.72 0.998059 2.039759
1.73 0.977679 2.035856
1.74 0.957350 2.029625
1.75 0.937094 2.021181
1.76 0.916933 2.010639
1.77 0.896888 1.998118
1.78 0.876977 1.983736
1.79 0.857219 1.967611
1.80 0.837630 1.949863
1.81 0.818227 1.930607
1.82 0.799023 1.909961
1.83 0.780032 1.888039
1.84 0.761266 1.864951
1.85 0.742736 1.840809
1.86 0.724453 1.815717
1.87 0.706425 1.789780
1.88 0.688660 1.763097
1.89 0.671165 1.735764
1.90 0.653947 1.707873
1.91 0.637009 1.679511
1.92 0.620358 1.650763
1.93 0.603995 1.621708
1.94 0.587924 1.592421
1.95 0.572147 1.562973
1.96 0.556665 1.533430
1.97 0.541479 1.503854
1.98 0.526588 1.474302
1.99 0.511992 1.444828
2.00 0.497691 1.415481
2.01 0.483682 1.386306
2.02 0.469964 1.357345
2.03 0.456534 1.328634
2.04 0.443390 1.300207
2.05 0.430529 1.272095
2.06 0.417947 1.244323
2.07 0.405642 1.216916
2.08 0.393608 1.189894
2.09 0.381842 1.163274
2.10 0.370341 1.137071
2.11 0.359099 1.111298
2.12 0.348114 1.085964
2.13 0.337379 1.061078
2.14 0.326890 1.036644
2.15 0.316644 1.012668
2.16 0.306636 0.989151
2.17 0.296860 0.966093
2.18 0.287312 0.943495
2.19 0.277988 0.921355
2.20 0.268884 0.899668
2.21 0.259993 0.878432
2.22 0.251313 0.857642
2.23 0.242839 0.837293
2.24 0.234566 0.817377
2.25 0.226490 0.797889
2.26 0.218607 0.778821
2.27 0.210912 0.760167
2.28 0.203402 0.741918
2.29 0.196073 0.724067
2.30 0.188920 0.706606
2.31 0.181939 0.689528
2.32 0.175128 0.672824
2.33 0.168482 0.656486
2.34 0.161997 0.640507
2.35 0.155670 0.624879
2.36 0.149498 0.609595
2.37 0.143477 0.594646
2.38 0.137604 0.580027
2.39 0.131876 0.565731
2.40 0.126288 0.551749
2.41 0.120840 0.538077
2.42 0.115526 0.524707
2.43 0.110344 0.511633
2.44 0.105292 0.498851
2.45 0.100367 0.486353
2.46 0.095564 0.474134
2.47 0.090883 0.462190
2.48 0.086320 0.450515
2.49 0.081872 0.439104
2.50 0.077537 0.427952
2.51 0.073312 0.417055
2.52 0.069195 0.406407
2.53 0.065183 0.396006
2.54 0.061274 0.385845
2.55 0.057465 0.375921
2.56 0.053755 0.366230
2.57 0.050140 0.356767
2.58 0.046619 0.347529
2.59 0.043189 0.338511
2.60 0.039848 0.329710
2.61 0.036594 0.321120
2.62 0.033424 0.312739
2.63 0.030338 0.304562
2.64 0.027333 0.296585
2.65 0.024406 0.288804
2.66 0.021556 0.281214
2.67 0.018781 0.273813
2.68 0.016079 0.266595
2.69 0.013448 0.259557
2.70 0.010887 0.252694
2.71 0.008394 0.246003
2.72 0.005967 0.239478
2.73 0.003604 0.233116
2.74 0.001304 0.226913
2.75 -0.000935 0.220864
2.76 -0.003114 0.214966
2.77 -0.005235 0.209213
2.78 -0.007299 0.203602
2.79 -0.009307 0.198129
2.80 -0.011262 0.192789
2.81 -0.013163 0.187578
2.82 -0.015014 0.182492
2.83 -0.016814 0.177528
2.84 -0.018565 0.172680
2.85 -0.020268 0.167946
2.86 -0.021924 0.163321
2.87 -0.023534 0.158801
2.88 -0.025100 0.154383
2.89 -0.026622 0.150064
2.90 -0.028102 0.145838
2.91 -0.029540 0.141703
2.92 -0.030936 0.137656
2.93 -0.032293 0.133694
2.94 -0.033610 0.129812
2.95 -0.034889 0.126008
2.96 -0.036131 0.122279
2.97 -0.037335 0.118621
2.98 -0.038503 0.115033
2.99 -0.039636 0.111512
3.00 -0.040734 0.108054
3.01 -0.041797 0.104657
3.02 -0.042827 0.101320
3.03 -0.043824 0.098039
3.04 -0.044788 0.094812
3.05 -0.045720 0.091638
3.06 -0.046621 0.088514
3.07 -0.047491 0.085439
3.08 -0.048330 0.082410
3.09 -0.049139 0.079427
3.10 -0.049919 0.076486
3.11 -0.050669 0.073588
3.12 -0.051391 0.070730
3.13 -0.052084 0.067910
3.14 -0.052749 0.065129
3.15 -0.053387 0.062384
3.16 -0.053997 0.059674
3.17 -0.054580 0.056999
3.18 -0.055137 0.054356
3.19 -0.055667 0.051746
3.20 -0.056172 0.049168
3.21 -0.056651 0.046619
3.22 -0.057104 0.044101
3.23 -0.057533 0.041612
3.24 -0.057937 0.039151
3.25 -0.058316 0.036718
3.26 -0.058671 0.034312
3.27 -0.059002 0.031934
3.28 -0.059310 0.029581
3.29 -0.059594 0.027255
3.30 -0.059855 0.024954
3.31 -0.060093 0.022679
3.32 -0.060309 0.020429
3.33 -0.060502 0.018205
3.34 -0.060673 0.016005
3.35 -0.060822 0.013831
3.36 -0.060950 0.011681
3.37 -0.061056 0.009556
3.38 -0.061141 0.007457
3.39 -0.061205 0.005383
3.40 -0.061249 0.003335
3.41 -0.061272 0.001312
3.42 -0.061275 -0.000684
3.43 -0.061258 -0.002653
3.44 -0.061222 -0.004596
3.45 -0.061166 -0.006510
3.46 -0.061092 -0.008397
3.47 -0.060999 -0.010255
3.48 -0.060887 -0.012083
3.49 -0.060757 -0.013882
3.50 -0.060609 -0.015650
3.51 -0.060444 -0.017386
3.52 -0.060262 -0.019090
3.53 -0.060062 -0.020761
3.54 -0.059847 -0.022398
3.55 -0.059615 -0.024000
3.56 -0.059367 -0.025567
3.57 -0.059103 -0.027097
3.58 -0.058825 -0.028589
3.59 -0.058532 -0.030044
3.60 -0.058224 -0.031459
3.61 -0.057903 -0.032835
3.62 -0.057568 -0.034170
3.63 -0.057219 -0.035463
3.64 -0.056858 -0.036714
3.65 -0.056485 -0.037922
3.66 -0.056100 -0.039086
3.67 -0.055704 -0.040206
3.68 -0.055296 -0.041281
3.69 -0.054878 -0.042311
3.70 -0.054450 -0.043294
3.71 -0.054012 -0.044232
3.72 -0.053566 -0.045123
3.73 -0.053110 -0.045968
3.74 -0.052646 -0.046766
3.75 -0.052175 -0.047517
3.76 -0.051696 -0.048221
3.77 -0.051211 -0.048879
3.78 -0.050719 -0.049490
3.79 -0.050221 -0.050056
3.80 -0.049718 -0.050576
3.81 -0.049210 -0.051052
3.82 -0.048697 -0.051484
3.83 -0.048180 -0.051872
3.84 -0.047660 -0.052218
3.85 -0.047136 -0.052522
3.86 -0.046609 -0.052787
3.87 -0.046080 -0.053012
3.88 -0.045549 -0.053200
3.89 -0.045016 -0.053351
3.90 -0.044482 -0.053467
3.91 -0.043947 -0.053550
3.92 -0.043411 -0.053601
3.93 -0.042875 -0.053622
3.94 -0.042339 -0.053615
3.95 -0.041803 -0.053581
3.96 -0.041268 -0.053522
3.97 -0.040733 -0.053441
3.98 -0.040199 -0.053339
3.99 -0.039666 -0.053217
4.00 -0.039135 -0.053079
4.01 -0.038605 -0.052925
4.02 -0.038076 -0.052757
4.03 -0.037549 -0.052574
4.04 -0.037025 -0.052378
4.05 -0.036502 -0.052168
4.06 -0.035981 -0.051944
4.07 -0.035463 -0.051708
4.08 -0.034947 -0.051460
4.09 -0.034434 -0.051199
4.10 -0.033923 -0.050927
4.11 -0.033415 -0.050644
4.12 -0.032910 -0.050350
4.13 -0.032408 -0.050045
4.14 -0.031910 -0.049730
4.15 -0.031414 -0.049405
4.16 -0.030921 -0.049071
4.17 -0.030432 -0.048728
4.18 -0.029947 -0.048376
4.19 -0.029465 -0.048015
4.20 -0.028987 -0.047647
4.21 -0.028512 -0.047270
4.22 -0.028041 -0.046887
4.23 -0.027574 -0.046496
4.24 -0.027111 -0.046098
4.25 -0.026652 -0.045695
4.26 -0.026198 -0.045284
4.27 -0.025747 -0.044868
4.28 -0.025300 -0.044447
4.29 -0.024858 -0.044020
4.30 -0.024420 -0.043589
4.31 -0.023986 -0.043153
4.32 -0.023557 -0.042712
4.33 -0.023132 -0.042268
4.34 -0.022711 -0.041819
4.35 -0.022295 -0.041368
4.36 -0.021884 -0.040913
4.37 -0.021477 -0.040455
4.38 -0.021075 -0.039994
4.39 -0.020677 -0.039531
4.40 -0.020284 -0.039066
4.41 -0.019896 -0.038599
4.42 -0.019512 -0.038130
4.43 -0.019133 -0.037660
4.44 -0.018759 -0.037188
4.45 -0.018390 -0.036716
4.46 -0.018025 -0.036243
4.47 -0.017665 -0.035769
4.48 -0.017310 -0.035295
4.49 -0.016959 -0.034821
4.50 -0.016613 -0.034347
4.51 -0.016272 -0.033873
4.52 -0.015936 -0.033400
4.53 -0.015604 -0.032927
4.54 -0.015277 -0.032456
4.55 -0.014955 -0.031985
4.56 -0.014637 -0.031516
4.57 -0.014325 -0.031048
4.58 -0.014016 -0.030582
4.59 -0.013713 -0.030117
4.60 -0.013414 -0.029654
4.61 -0.013120 -0.029194
4.62 -0.012830 -0.028735
4.63 -0.012545 -0.028279
4.64 -0.012265 -0.027825
4.65 -0.011989 -0.027374
4.66 -0.011717 -0.026926
4.67 -0.011450 -0.026481
4.68 -0.011187 -0.026039
4.69 -0.010929 -0.025599
4.70 -0.010675 -0.025163
4.71 -0.010426 -0.024731
4.72 -0.010181 -0.024301
4.73 -0.009940 -0.023876
4.74 -0.009703 -0.023454
4.75 -0.009471 -0.023035
4.76 -0.009243 -0.022621
4.77 -0.009018 -0.022210
4.78 -0.008798 -0.021803
4.79 -0.008582 -0.021400
4.80 -0.008370 -0.021002
4.81 -0.008162 -0.020607
4.82 -0.007958 -0.020217
4.83 -0.007758 -0.019831
4.84 -0.007562 -0.019449
4.85 -0.007369 -0.019072
4.86 -0.007180 -0.018699
4.87 -0.006995 -0.018331
4.88 -0.006814 -0.017967
4.89 -0.006636 -0.017607
4.90 -0.006461 -0.017252
4.91 -0.006291 -0.016902
4.92 -0.006123 -0.016557
4.93 -0.005959 -0.016216
4.94 -0.005799 -0.015879
4.95 -0.005642 -0.015547
4.96 -0.005488 -0.015220
4.97 -0.005337 -0.014898
4.98 -0.005190 -0.014580
4.99 -0.005046 -0.014267
5.00 -0.004905 -0.013959
5.01 -0.004767 -0.013655
5.02 -0.004632 -0.013356
5.03 -0.004499 -0.013062
5.04 -0.004370 -0.012772
5.05 -0.004244 -0.012487
5.06 -0.004121 -0.012206
5.07 -0.004000 -0.011931
5.08 -0.003882 -0.011659
5.09 -0.003767 -0.011392
5.10 -0.003654 -0.011130
5.11 -0.003544 -0.010872
5.12 -0.003437 -0.010619
5.13 -0.003332 -0.010370
5.14 -0.003229 -0.010126
5.15 -0.003129 -0.009886
5.16 -0.003031 -0.009650
5.17 -0.002936 -0.009418
5.18 -0.002843 -0.009191
5.19 -0.002752 -0.008968
5.20 -0.002664 -0.008749
5.21 -0.002577 -0.008534
5.22 -0.002493 -0.008324
5.23 -0.002411 -0.008117
5.24 -0.002331 -0.007914
5.25 -0.002253 -0.007715
5.26 -0.002176 -0.007521
5.27 -0.002102 -0.007330
5.28 -0.002030 -0.007142
5.29 -0.001959 -0.006959
5.30 -0.001891 -0.006779
5.31 -0.001824 -0.006603
5.32 -0.001758 -0.006430
5.33 -0.001695 -0.006261
5.34 -0.001633 -0.006095
5.35 -0.001573 -0.005933
5.36 -0.001515 -0.005774
5.37 -0.001458 -0.005618
5.38 -0.001402 -0.005466
5.39 -0.001348 -0.005316
5.40 -0.001296 -0.005170
5.41 -0.001245 -0.005027
5.42 -0.001195 -0.004887
5.43 -0.001147 -0.004750
5.44 -0.001100 -0.004616
5.45 -0.001055 -0.004484
5.46 -0.001011 -0.004356
5.47 -0.000968 -0.004230
5.48 -0.000926 -0.004106
5.49 -0.000886 -0.003986
5.50 -0.000846 -0.003867
5.51 -0.000808 -0.003752
5.52 -0.000771 -0.003638
5.53 -0.000735 -0.003528
5.54 -0.000701 -0.003419
5.55 -0.000667 -0.003313
5.56 -0.000634 -0.003208
5.57 -0.000603 -0.003106
5.58 -0.000572 -0.003006
5.59 -0.000543 -0.002909
5.60 -0.000514 -0.002813
5.61 -0.000486 -0.002719
5.62 -0.000460 -0.002626
5.63 -0.000434 -0.002536
5.64 -0.000409 -0.002447
5.65 -0.000385 -0.002360
5.66 -0.000362 -0.002275
5.67 -0.000339 -0.002192
5.68 -0.000318 -0.002109
5.69 -0.000297 -0.002029
5.70 -0.000277 -0.001950
5.71 -0.000258 -0.001872
5.72 -0.000240 -0.001795
5.73 -0.000222 -0.001720
5.74 -0.000206 -0.001646
5.75 -0.000189 -0.001573
5.76 -0.000174 -0.001502
5.77 -0.000159 -0.001431
5.78 -0.000145 -0.001361
5.79 -0.000132 -0.001293
5.80 -0.000120 -0.001225
5.81 -0.000108 -0.001159
5.82 -0.000096 -0.001093
5.83 -0.000086 -0.001028
5.84 -0.000076 -0.000963
5.85 -0.000067 -0.000900
5.86 -0.000058 -0.000837
5.87 -0.000050 -0.000774
5.88 -0.000042 -0.000713
5.89 -0.000036 -0.000651
5.90 -0.000029 -0.000591
5.91 -0.000024 -0.000530
5.92 -0.000019 -0.000470
5.93 -0.000014 -0.000411
5.94 -0.000011 -0.000352
5.95 -0.000007 -0.000293
5.96 -0.000005 -0.000234
5.97 -0.000003 -0.000175
5.98 -0.000001 -0.000117
5.99 -0.000000 -0.000058
6.00 0.000000 -0.000000
