Distance (Å)  Energy (eV)  Force (eV/Å)
0.10 0.344123 8.057227
0.11 0.273799 6.047672
0.12 0.222439 4.257797
0.13 0.188024 2.654002
0.14 0.168812 1.214462
0.15 0.163233 -0.074255
0.16 0.169821 -1.219841
0.17 0.187166 -2.226313
0.18 0.213890 -3.095596
0.19 0.248624 -3.828745
0.20 0.290014 -4.426867
0.21 0.336718 -4.891822
0.22 0.387417 -5.226702
0.23 0.440833 -5.436143
0.24 0.495743 -5.526450
0.25 0.550992 -5.505580
0.26 0.605515 -5.382999
0.27 0.658348 -5.169421
0.28 0.708639 -4.876499
0.29 0.755654 -4.516461
0.30 0.798786 -4.101749
0.31 0.837548 -3.644682
0.32 0.871578 -3.157147
0.33 0.900627 -2.650356
0.34 0.924555 -2.134650
0.35 0.943322 -1.619370
0.36 0.956972 -1.112774
0.37 0.965630 -0.622003
0.38 0.969485 -0.153086
0.39 0.968781 0.289023
0.40 0.963807 0.700398
0.41 0.954886 1.078060
0.42 0.942365 1.419903
0.43 0.926612 1.724608
0.44 0.907999 1.991555
0.45 0.886906 2.220732
0.46 0.863709 2.412657
0.47 0.838774 2.568287
0.48 0.812460 2.688948
0.49 0.785107 2.776254
0.50 0.757040 2.832042
0.51 0.728564 2.858311
0.52 0.699965 2.857159
0.53 0.671505 2.830739
0.54 0.643427 2.781206
0.55 0.615951 2.710689
0.56 0.589276 2.621249
0.57 0.563582 2.514861
0.58 0.539029 2.393389
0.59 0.515759 2.258575
0.60 0.493897 2.112026
0.61 0.473553 1.955216
0.62 0.454822 1.789477
0.63 0.437789 1.616011
0.64 0.422524 1.435888
0.65 0.409090 1.250060
0.66 0.397539 1.059368
0.67 0.387917 0.864554
0.68 0.380260 0.666277
0.69 0.374601 0.465121
0.70 0.370965 0.261610
0.71 0.369375 0.056221
0.72 0.369846 -0.150604
0.73 0.372390 -0.358445
0.74 0.377017 -0.566896
0.75 0.383729 -0.775553
0.76 0.392527 -0.984006
0.77 0.403407 -1.191832
0.78 0.416360 -1.398589
0.79 0.431373 -1.603810
0.80 0.448429 -1.806999
0.81 0.467505 -2.007630
0.82 0.488572 -2.205145
0.83 0.511595 -2.398956
0.84 0.536536 -2.588441
0.85 0.563348 -2.772951
0.86 0.591977 -2.951814
0.87 0.622363 -3.124336
0.88 0.654440 -3.289808
0.89 0.688133 -3.447512
0.90 0.723362 -3.596730
0.91 0.760037 -3.736748
0.92 0.798064 -3.866869
0.93 0.837339 -3.986416
0.94 0.877755 -4.094744
0.95 0.919195 -4.191249
0.96 0.961538 -4.275375
0.97 1.004659 -4.346622
0.98 1.048426 -4.404555
0.99 1.092705 -4.448809
1.00 1.137356 -4.479096
1.01 1.182239 -4.495207
1.02 1.227212 -4.497022
1.03 1.272132 -4.484505
1.04 1.316855 -4.457708
1.05 1.361239 -4.416773
1.06 1.405144 -4.361925
1.07 1.448432 -4.293475
1.08 1.490969 -4.211812
1.09 1.532626 -4.117398
1.10 1.573277 -4.010766
1.11 1.612803 -3.892509
1.12 1.651090 -3.763274
1.13 1.688034 -3.623756
1.14 1.723534 -3.474689
1.15 1.757498 -3.316839
1.16 1.789844 -3.150997
1.17 1.820494 -2.977967
1.18 1.849382 -2.798568
1.19 1.876447 -2.613618
1.20 1.901638 -2.423935
1.21 1.924913 -2.230328
1.22 1.946235 -2.033594
1.23 1.965577 -1.834511
1.24 1.982919 -1.633839
1.25 1.998251 -1.432313
1.26 2.011565 -1.230640
1.27 2.022865 -1.029502
1.28 2.032159 -0.829549
1.29 2.039462 -0.631400
1.30 2.044795 -0.435641
1.31 2.048185 -0.242826
1.32 2.049663 -0.053475
1.33 2.049268 0.131926
1.34 2.047039 0.312925
1.35 2.043025 0.489104
1.36 2.037275 0.660079
1.37 2.029842 0.825501
1.38 2.020784 0.985053
1.39 2.010162 1.138454
1.40 1.998037 1.285455
1.41 1.984474 1.425841
1.42 1.969542 1.559428
1.43 1.953309 1.686066
1.44 1.935845 1.805637
1.45 1.917220 1.918053
1.46 1.897508 2.023259
1.47 1.876779 2.121228
1.48 1.855107 2.211961
1.49 1.832564 2.295491
1.50 1.809221 2.371873
1.51 1.785150 2.441193
1.52 1.760421 2.503557
1.53 1.735102 2.559096
1.54 1.709261 2.607963
1.55 1.682964 2.650331
1.56 1.656275 2.686390
1.57 1.629257 2.716348
1.58 1.601968 2.740426
1.59 1.574467 2.758860
1.60 1.546809 2.771896
1.61 1.519046 2.779789
1.62 1.491229 2.782801
1.63 1.463405 2.781202
1.64 1.435620 2.775262
1.65 1.407914 2.765256
1.66 1.380327 2.751459
1.67 1.352896 2.734143
1.68 1.325655 2.713580
1.69 1.298635 2.690037
1.70 1.271863 2.663776
1.71 1.245367 2.635052
1.72 1.219170 2.604113
1.73 1.193292 2.571199
1.74 1.167752 2.536542
1.75 1.142566 2.500362
1.76 1.117749 2.462871
1.77 1.093312 2.424269
1.78 1.069266 2.384746
1.79 1.045620 2.344480
1.80 1.022379 2.303638
1.81 0.999548 2.262375
1.82 0.977132 2.220835
1.83 0.955132 2.179153
1.84 0.933549 2.137448
1.85 0.912383 2.095833
1.86 0.891632 2.054409
1.87 0.871294 2.013264
1.88 0.851365 1.972481
1.89 0.831843 1.932130
1.90 0.812721 1.892273
1.91 0.793995 1.852966
1.92 0.775660 1.814253
1.93 0.757708 1.776173
1.94 0.740134 1.738758
1.95 0.722931 1.702033
1.96 0.706091 1.666018
1.97 0.689608 1.630725
1.98 0.673474 1.596165
1.99 0.657682 1.562342
2.00 0.642225 1.529256
2.01 0.627095 1.496904
2.02 0.612284 1.465280
2.03 0.597787 1.434375
2.04 0.583594 1.404179
2.05 0.569701 1.374677
2.06 0.556099 1.345855
2.07 0.542781 1.317696
2.08 0.529743 1.290185
2.09 0.516976 1.263303
2.10 0.504475 1.237030
2.11 0.492233 1.211350
2.12 0.480246 1.186242
2.13 0.468506 1.161688
2.14 0.457010 1.137670
2.15 0.445751 1.114168
2.16 0.434725 1.091166
2.17 0.423926 1.068646
2.18 0.413351 1.046591
2.19 0.402993 1.024985
2.20 0.392849 1.003814
2.21 0.382915 0.983062
2.22 0.373187 0.962716
2.23 0.363660 0.942762
2.24 0.354330 0.923190
2.25 0.345195 0.903987
2.26 0.336249 0.885142
2.27 0.327491 0.866646
2.28 0.318915 0.848490
2.29 0.310520 0.830664
2.30 0.302301 0.813161
2.31 0.294256 0.795974
2.32 0.286380 0.779096
2.33 0.278673 0.762519
2.34 0.271129 0.746239
2.35 0.263747 0.730249
2.36 0.256523 0.714545
2.37 0.249455 0.699122
2.38 0.242540 0.683975
2.39 0.235775 0.669099
2.40 0.229157 0.654491
2.41 0.222684 0.640146
2.42 0.216353 0.626061
2.43 0.210162 0.612231
2.44 0.204108 0.598653
2.45 0.198188 0.585323
2.46 0.192400 0.572238
2.47 0.186742 0.559394
2.48 0.181212 0.546786
2.49 0.175806 0.534412
2.50 0.170523 0.522267
2.51 0.165360 0.510349
2.52 0.160315 0.498652
2.53 0.155386 0.487173
2.54 0.150571 0.475909
2.55 0.145867 0.464854
2.56 0.141273 0.454007
2.57 0.136786 0.443361
2.58 0.132405 0.432914
2.59 0.128127 0.422661
2.60 0.123951 0.412598
2.61 0.119875 0.402721
2.62 0.115896 0.393027
2.63 0.112014 0.383510
2.64 0.108226 0.374168
2.65 0.104530 0.364997
2.66 0.100925 0.355992
2.67 0.097409 0.347149
2.68 0.093982 0.338466
2.69 0.090640 0.329939
2.70 0.087382 0.321564
2.71 0.084208 0.313337
2.72 0.081115 0.305256
2.73 0.078102 0.297318
2.74 0.075168 0.289519
2.75 0.072311 0.281856
2.76 0.069531 0.274328
2.77 0.066824 0.266931
2.78 0.064192 0.259663
2.79 0.061631 0.252522
2.80 0.059141 0.245505
2.81 0.056720 0.238611
2.82 0.054368 0.231838
2.83 0.052083 0.225184
2.84 0.049864 0.218648
2.85 0.047710 0.212229
2.86 0.045619 0.205924
2.87 0.043591 0.199733
2.88 0.041624 0.193655
2.89 0.039717 0.187689
2.90 0.037870 0.181834
2.91 0.036080 0.176089
2.92 0.034348 0.170455
2.93 0.032671 0.164929
2.94 0.031049 0.159512
2.95 0.029480 0.154204
2.96 0.027964 0.149004
2.97 0.026500 0.143911
2.98 0.025086 0.138926
2.99 0.023721 0.134048
3.00 0.022404 0.129276
3.01 0.021135 0.124611
3.02 0.019912 0.120053
3.03 0.018734 0.115600
3.04 0.017599 0.111254
3.05 0.016508 0.107012
3.06 0.015459 0.102876
3.07 0.014450 0.098845
3.08 0.013482 0.094918
3.09 0.012552 0.091095
3.10 0.011659 0.087376
3.11 0.010804 0.083759
3.12 0.009984 0.080244
3.13 0.009199 0.076831
3.14 0.008447 0.073518
3.15 0.007728 0.070306
3.16 0.007040 0.067192
3.17 0.006384 0.064176
3.18 0.005757 0.061257
3.19 0.005158 0.058434
3.20 0.004588 0.055706
3.21 0.004044 0.053070
3.22 0.003526 0.050527
3.23 0.003033 0.048075
3.24 0.002564 0.045711
3.25 0.002118 0.043435
3.26 0.001695 0.041245
3.27 0.001293 0.039140
3.28 0.000912 0.037118
3.29 0.000551 0.035176
3.30 0.000208 0.033314
3.31 -0.000116 0.031529
3.32 -0.000423 0.029820
3.33 -0.000713 0.028185
3.34 -0.000987 0.026622
3.35 -0.001245 0.025128
3.36 -0.001489 0.023703
3.37 -0.001719 0.022345
3.38 -0.001936 0.021051
3.39 -0.002141 0.019819
3.40 -0.002333 0.018648
3.41 -0.002514 0.017535
3.42 -0.002684 0.016480
3.43 -0.002844 0.015479
3.44 -0.002994 0.014532
3.45 -0.003134 0.013636
3.46 -0.003267 0.012790
3.47 -0.003390 0.011992
3.48 -0.003507 0.011240
3.49 -0.003615 0.010532
3.50 -0.003717 0.009868
3.51 -0.003813 0.009245
3.52 -0.003902 0.008661
3.53 -0.003986 0.008116
3.54 -0.004065 0.007608
3.55 -0.004138 0.007136
3.56 -0.004208 0.006697
3.57 -0.004273 0.006291
3.58 -0.004334 0.005917
3.59 -0.004391 0.005572
3.60 -0.004445 0.005257
3.61 -0.004496 0.004970
3.62 -0.004545 0.004709
3.63 -0.004590 0.004473
3.64 -0.004634 0.004262
3.65 -0.004676 0.004075
3.66 -0.004716 0.003909
3.67 -0.004754 0.003765
3.68 -0.004791 0.003641
3.69 -0.004827 0.003537
3.70 -0.004862 0.003450
3.71 -0.004896 0.003381
3.72 -0.004930 0.003329
3.73 -0.004963 0.003291
3.74 -0.004995 0.003269
3.75 -0.005028 0.003259
3.76 -0.005061 0.003263
3.77 -0.005093 0.003278
3.78 -0.005126 0.003304
3.79 -0.005159 0.003339
3.80 -0.005193 0.003383
3.81 -0.005227 0.003435
3.82 -0.005262 0.003494
3.83 -0.005297 0.003559
3.84 -0.005333 0.003628
3.85 -0.005370 0.003702
3.86 -0.005407 0.003778
3.87 -0.005445 0.003856
3.88 -0.005484 0.003934
3.89 -0.005524 0.004012
3.90 -0.005564 0.004089
3.91 -0.005606 0.004164
3.92 -0.005648 0.004235
3.93 -0.005690 0.004301
3.94 -0.005734 0.004362
3.95 -0.005778 0.004416
3.96 -0.005822 0.004463
3.97 -0.005867 0.004502
3.98 -0.005912 0.004530
3.99 -0.005957 0.004548
4.00 -0.006003 0.004555
4.01 -0.006048 0.004549
4.02 -0.006094 0.004530
4.03 -0.006139 0.004500
4.04 -0.006184 0.004457
4.05 -0.006228 0.004401
4.06 -0.006272 0.004334
4.07 -0.006315 0.004254
4.08 -0.006357 0.004162
4.09 -0.006398 0.004059
4.10 -0.006438 0.003944
4.11 -0.006477 0.003818
4.12 -0.006514 0.003681
4.13 -0.006550 0.003533
4.14 -0.006585 0.003375
4.15 -0.006618 0.003206
4.16 -0.006649 0.003027
4.17 -0.006678 0.002839
4.18 -0.006706 0.002641
4.19 -0.006731 0.002435
4.20 -0.006754 0.002220
4.21 -0.006775 0.001997
4.22 -0.006794 0.001766
4.23 -0.006811 0.001528
4.24 -0.006825 0.001283
4.25 -0.006836 0.001031
4.26 -0.006845 0.000773
4.27 -0.006852 0.000510
4.28 -0.006856 0.000241
4.29 -0.006857 -0.000032
4.30 -0.006855 -0.000310
4.31 -0.006850 -0.000592
4.32 -0.006843 -0.000877
4.33 -0.006833 -0.001165
4.34 -0.006820 -0.001455
4.35 -0.006804 -0.001748
4.36 -0.006785 -0.002042
4.37 -0.006763 -0.002338
4.38 -0.006738 -0.002634
4.39 -0.006710 -0.002930
4.40 -0.006679 -0.003226
4.41 -0.006646 -0.003521
4.42 -0.006609 -0.003816
4.43 -0.006569 -0.004108
4.44 -0.006527 -0.004399
4.45 -0.006481 -0.004688
4.46 -0.006433 -0.004973
4.47 -0.006382 -0.005256
4.48 -0.006328 -0.005535
4.49 -0.006271 -0.005810
4.50 -0.006212 -0.006080
4.51 -0.006150 -0.006346
4.52 -0.006085 -0.006607
4.53 -0.006018 -0.006862
4.54 -0.005948 -0.007112
4.55 -0.005875 -0.007355
4.56 -0.005801 -0.007592
4.57 -0.005724 -0.007823
4.58 -0.005644 -0.008046
4.59 -0.005563 -0.008262
4.60 -0.005479 -0.008470
4.61 -0.005393 -0.008671
4.62 -0.005306 -0.008864
4.63 -0.005216 -0.009048
4.64 -0.005125 -0.009224
4.65 -0.005032 -0.009391
4.66 -0.004937 -0.009550
4.67 -0.004841 -0.009699
4.68 -0.004743 -0.009840
4.69 -0.004644 -0.009971
4.70 -0.004544 -0.010092
4.71 -0.004442 -0.010204
4.72 -0.004339 -0.010306
4.73 -0.004236 -0.010399
4.74 -0.004132 -0.010482
4.75 -0.004026 -0.010555
4.76 -0.003920 -0.010618
4.77 -0.003814 -0.010672
4.78 -0.003707 -0.010715
4.79 -0.003600 -0.010748
4.80 -0.003492 -0.010772
4.81 -0.003384 -0.010786
4.82 -0.003276 -0.010790
4.83 -0.003169 -0.010784
4.84 -0.003061 -0.010769
4.85 -0.002953 -0.010744
4.86 -0.002846 -0.010709
4.87 -0.002739 -0.010666
4.88 -0.002633 -0.010613
4.89 -0.002527 -0.010551
4.90 -0.002422 -0.010479
4.91 -0.002317 -0.010400
4.92 -0.002214 -0.010311
4.93 -0.002111 -0.010214
4.94 -0.002009 -0.010109
4.95 -0.001909 -0.009996
4.96 -0.001810 -0.009875
4.97 -0.001711 -0.009746
4.98 -0.001615 -0.009610
4.99 -0.001519 -0.009467
5.00 -0.001425 -0.009316
5.01 -0.001333 -0.009160
5.02 -0.001242 -0.008996
5.03 -0.001153 -0.008827
5.04 -0.001066 -0.008652
5.05 -0.000980 -0.008471
5.06 -0.000896 -0.008285
5.07 -0.000814 -0.008094
5.08 -0.000734 -0.007898
5.09 -0.000656 -0.007697
5.10 -0.000580 -0.007493
5.11 -0.000507 -0.007285
5.12 -0.000435 -0.007073
5.13 -0.000365 -0.006858
5.14 -0.000298 -0.006640
5.15 -0.000232 -0.006420
5.16 -0.000169 -0.006197
5.17 -0.000108 -0.005972
5.18 -0.000050 -0.005746
5.19 0.000007 -0.005518
5.20 0.000061 -0.005290
5.21 0.000112 -0.005060
5.22 0.000162 -0.004831
5.23 0.000209 -0.004601
5.24 0.000254 -0.004371
5.25 0.000296 -0.004142
5.26 0.000337 -0.003914
5.27 0.000375 -0.003686
5.28 0.000410 -0.003461
5.29 0.000444 -0.003236
5.30 0.000475 -0.003014
5.31 0.000504 -0.002794
5.32 0.000531 -0.002577
5.33 0.000556 -0.002362
5.34 0.000578 -0.002151
5.35 0.000599 -0.001942
5.36 0.000617 -0.001737
5.37 0.000633 -0.001536
5.38 0.000648 -0.001339
5.39 0.000660 -0.001146
5.40 0.000671 -0.000958
5.41 0.000679 -0.000774
5.42 0.000686 -0.000595
5.43 0.000691 -0.000421
5.44 0.000695 -0.000252
5.45 0.000696 -0.000088
5.46 0.000696 0.000070
5.47 0.000695 0.000222
5.48 0.000692 0.000369
5.49 0.000688 0.000509
5.50 0.000682 0.000644
5.51 0.000675 0.000772
5.52 0.000666 0.000894
5.53 0.000657 0.001010
5.54 0.000646 0.001120
5.55 0.000635 0.001223
5.56 0.000622 0.001319
5.57 0.000608 0.001409
5.58 0.000594 0.001492
5.59 0.000578 0.001569
5.60 0.000562 0.001639
5.61 0.000546 0.001702
5.62 0.000528 0.001759
5.63 0.000510 0.001809
5.64 0.000492 0.001852
5.65 0.000473 0.001889
5.66 0.000454 0.001919
5.67 0.000435 0.001943
5.68 0.000416 0.001960
5.69 0.000396 0.001971
5.70 0.000376 0.001976
5.71 0.000356 0.001975
5.72 0.000337 0.001968
5.73 0.000317 0.001954
5.74 0.000298 0.001935
5.75 0.000278 0.001911
5.76 0.000259 0.001881
5.77 0.000241 0.001845
5.78 0.000223 0.001804
5.79 0.000205 0.001759
5.80 0.000187 0.001708
5.81 0.000171 0.001653
5.82 0.000154 0.001593
5.83 0.000139 0.001529
5.84 0.000124 0.001461
5.85 0.000110 0.001389
5.86 0.000096 0.001313
5.87 0.000083 0.001234
5.88 0.000071 0.001152
5.89 0.000060 0.001067
5.90 0.000050 0.000979
5.91 0.000041 0.000888
5.92 0.000032 0.000795
5.93 0.000025 0.000700
5.94 0.000018 0.000604
5.95 0.000013 0.000505
5.96 0.000008 0.000406
5.97 0.000005 0.000305
5.98 0.000002 0.000204
5.99 0.000001 0.000102
6.00 0.000000 0.000000
