Distance (Å)  Energy (eV)  Force (eV/Å)
0.10 758.828292 11020.721434
0.11 659.722960 8905.197310
0.12 578.981756 7315.418173
0.13 512.193723 6093.655878
0.14 456.229477 5136.724029
0.15 408.811220 4374.890331
0.16 368.244339 3759.711913
0.17 333.244031 3256.727030
0.18 302.819955 2840.908482
0.19 276.197504 2493.748117
0.20 252.762858 2201.336943
0.21 232.023879 1953.070872
0.22 213.581787 1740.759855
0.23 197.110315 1558.003237
0.24 182.340175 1399.744496
0.25 169.047301 1261.949145
0.26 157.043876 1141.368652
0.27 146.171390 1035.365283
0.28 136.295217 941.780671
0.29 127.300343 858.836115
0.30 119.087973 785.056130
0.31 111.572799 719.209228
0.32 104.680808 660.261601
0.33 98.347493 607.340566
0.34 92.516389 559.705494
0.35 87.137879 516.724543
0.36 82.168199 477.855914
0.37 77.568616 442.632705
0.38 73.304747 410.650601
0.39 69.345978 381.557856
0.40 65.664987 355.047099
0.41 62.237332 330.848630
0.42 59.041102 308.724900
0.43 56.056621 288.465966
0.44 53.266189 269.885736
0.45 50.653864 252.818832
0.46 48.205261 237.117985
0.47 45.907390 222.651826
0.48 43.748501 209.303016
0.49 41.717956 196.966648
0.50 39.806107 185.548850
0.51 38.004198 174.965569
0.52 36.304266 165.141496
0.53 34.699063 156.009110
0.54 33.181981 147.507814
0.55 31.746985 139.583167
0.56 30.388559 132.186195
0.57 29.101650 125.272771
0.58 27.881625 118.803068
0.59 26.724230 112.741068
0.60 25.625554 107.054141
0.61 24.581996 101.712671
0.62 23.590239 96.689732
0.63 22.647222 91.960810
0.64 21.750118 87.503564
0.65 20.896313 83.297619
0.66 20.083390 79.324386
0.67 19.309106 75.566906
0.68 18.571384 72.009712
0.69 17.868292 68.638706
0.70 17.198032 65.441043
0.71 16.558932 62.405035
0.72 15.949428 59.520049
0.73 15.368060 56.776419
0.74 14.813458 54.165364
0.75 14.284337 51.678902
0.76 13.779489 49.309776
0.77 13.297773 47.051386
0.78 12.838112 44.897716
0.79 12.399488 42.843276
0.80 11.980933 40.883043
0.81 11.581528 39.012405
0.82 11.200400 37.227117
0.83 10.836715 35.523255
0.84 10.489676 33.897176
0.85 10.158523 32.345488
0.86 9.842529 30.865010
0.87 9.540996 29.452757
0.88 9.253256 28.105905
0.89 8.978668 26.821780
0.90 8.716619 25.597835
0.91 8.464255 24.876899
0.92 8.219044 24.167057
0.93 7.980874 23.469043
0.94 7.749622 22.783486
0.95 7.525161 22.110920
0.96 7.307359 21.451788
0.97 7.096079 20.806453
0.98 6.891183 20.175198
0.99 6.692528 19.558238
1.00 6.499970 18.955726
1.01 6.313365 18.367757
1.02 6.132566 17.794378
1.03 5.957428 17.235592
1.04 5.787806 16.691364
1.05 5.623553 16.161626
1.06 5.464525 15.646281
1.07 5.310580 15.145209
1.08 5.161574 14.658271
1.09 5.017368 14.185309
1.10 4.877822 13.726149
1.11 4.742799 13.280609
1.12 4.612165 12.848491
1.13 4.485785 12.429591
1.14 4.363530 12.023696
1.15 4.245269 11.630584
1.16 4.130876 11.250029
1.17 4.020227 10.881794
1.18 3.913200 10.525640
1.19 3.809675 10.181320
1.20 3.709535 9.848581
1.21 3.612666 9.527168
1.22 3.518955 9.216819
1.23 3.428293 8.917266
1.24 3.340574 8.628241
1.25 3.255694 8.349470
1.26 3.173552 8.080678
1.27 3.094048 7.821587
1.28 3.017089 7.571917
1.29 2.942580 7.331390
1.30 2.870431 7.099726
1.31 2.800556 6.876645
1.32 2.732871 6.661871
1.33 2.667292 6.455126
1.34 2.603742 6.256139
1.35 2.542144 6.064638
1.36 2.482425 5.880356
1.37 2.424514 5.703030
1.38 2.368342 5.532400
1.39 2.313845 5.368212
1.40 2.260958 5.210215
1.41 2.209621 5.058163
1.42 2.159775 4.911815
1.43 2.111366 4.770935
1.44 2.064339 4.635293
1.45 2.018643 4.504663
1.46 1.974230 4.378826
1.47 1.931052 4.257567
1.48 1.889064 4.140676
1.49 1.848224 4.027952
1.50 1.808492 3.919196
1.51 1.769828 3.814218
1.52 1.732195 3.712831
1.53 1.695560 3.614857
1.54 1.659888 3.520124
1.55 1.625147 3.428466
1.56 1.591308 3.339722
1.57 1.558343 3.253741
1.58 1.526225 3.170376
1.59 1.494928 3.089490
1.60 1.464427 3.010951
1.61 1.434701 2.934634
1.62 1.405728 2.860424
1.63 1.377486 2.788209
1.64 1.349957 2.717889
1.65 1.323122 2.649368
1.66 1.296964 2.582558
1.67 1.271466 2.517378
1.68 1.246611 2.453756
1.69 1.222386 2.391625
1.70 1.198774 2.330923
1.71 1.175763 2.271598
1.72 1.153338 2.213601
1.73 1.131486 2.156891
1.74 1.110196 2.101432
1.75 1.089454 2.047193
1.76 1.069248 1.994147
1.77 1.049567 1.942274
1.78 1.030399 1.891554
1.79 1.011732 1.841975
1.80 0.993555 1.793526
1.81 0.975663 1.784670
1.82 0.957867 1.774256
1.83 0.940183 1.762375
1.84 0.922624 1.749119
1.85 0.905205 1.734579
1.86 0.887937 1.718845
1.87 0.870831 1.702009
1.88 0.853900 1.684159
1.89 0.837151 1.665382
1.90 0.820595 1.645764
1.91 0.804239 1.625389
1.92 0.788089 1.604339
1.93 0.772154 1.582692
1.94 0.756437 1.560525
1.95 0.740945 1.537910
1.96 0.725680 1.514919
1.97 0.710647 1.491618
1.98 0.695849 1.468070
1.99 0.681287 1.444337
2.00 0.666962 1.420475
2.01 0.652877 1.396538
2.02 0.639032 1.372576
2.03 0.625426 1.348635
2.04 0.612059 1.324759
2.05 0.598930 1.300988
2.06 0.586039 1.277357
2.07 0.573383 1.253900
2.08 0.560960 1.230648
2.09 0.548769 1.207626
2.10 0.536807 1.184860
2.11 0.525071 1.162371
2.12 0.513558 1.140176
2.13 0.502266 1.118292
2.14 0.491191 1.096733
2.15 0.480330 1.075510
2.16 0.469680 1.054632
2.17 0.459236 1.034106
2.18 0.448997 1.013937
2.19 0.438957 0.994128
2.20 0.429113 0.974683
2.21 0.419462 0.955600
2.22 0.410000 0.936881
2.23 0.400723 0.918521
2.24 0.391628 0.900520
2.25 0.382711 0.882872
2.26 0.373969 0.865574
2.27 0.365399 0.848619
2.28 0.356996 0.832002
2.29 0.348758 0.815717
2.30 0.340680 0.799756
2.31 0.332761 0.784113
2.32 0.324997 0.768781
2.33 0.317385 0.753751
2.34 0.309921 0.739017
2.35 0.302603 0.724571
2.36 0.295429 0.710406
2.37 0.288394 0.696513
2.38 0.281498 0.682886
2.39 0.274736 0.669517
2.40 0.268106 0.656400
2.41 0.261607 0.643527
2.42 0.255235 0.630893
2.43 0.248988 0.618490
2.44 0.242865 0.606313
2.45 0.236861 0.594356
2.46 0.230977 0.582613
2.47 0.225208 0.571079
2.48 0.219554 0.559750
2.49 0.214013 0.548619
2.50 0.208581 0.537683
2.51 0.203258 0.526937
2.52 0.198042 0.516377
2.53 0.192930 0.505999
2.54 0.187922 0.495800
2.55 0.183014 0.485776
2.56 0.178205 0.475924
2.57 0.173495 0.466240
2.58 0.168880 0.456722
2.59 0.164360 0.447367
2.60 0.159932 0.438171
2.61 0.155596 0.429133
2.62 0.151349 0.420249
2.63 0.147190 0.411518
2.64 0.143118 0.402936
2.65 0.139131 0.394502
2.66 0.135228 0.386213
2.67 0.131406 0.378067
2.68 0.127666 0.370061
2.69 0.124005 0.362194
2.70 0.120421 0.354464
2.71 0.116915 0.346867
2.72 0.113484 0.339403
2.73 0.110126 0.332068
2.74 0.106842 0.324861
2.75 0.103629 0.317780
2.76 0.100486 0.310823
2.77 0.097412 0.303987
2.78 0.094406 0.297271
2.79 0.091466 0.290672
2.80 0.088592 0.284188
2.81 0.085782 0.277818
2.82 0.083035 0.271559
2.83 0.080350 0.265409
2.84 0.077727 0.259367
2.85 0.075163 0.253430
2.86 0.072658 0.247596
2.87 0.070210 0.241864
2.88 0.067820 0.236231
2.89 0.065486 0.230696
2.90 0.063206 0.225256
2.91 0.060980 0.219911
2.92 0.058807 0.214658
2.93 0.056687 0.209495
2.94 0.054617 0.204421
2.95 0.052598 0.199434
2.96 0.050628 0.194532
2.97 0.048707 0.189715
2.98 0.046834 0.184979
2.99 0.045007 0.180324
3.00 0.043227 0.175749
3.01 0.041492 0.171251
3.02 0.039802 0.166829
3.03 0.038155 0.162483
3.04 0.036552 0.158210
3.05 0.034991 0.154009
3.06 0.033471 0.149879
3.07 0.031993 0.145819
3.08 0.030555 0.141828
3.09 0.029156 0.137903
3.10 0.027796 0.134045
3.11 0.026475 0.130252
3.12 0.025191 0.126522
3.13 0.023944 0.122855
3.14 0.022734 0.119249
3.15 0.021559 0.115704
3.16 0.020420 0.112219
3.17 0.019315 0.108792
3.18 0.018244 0.105422
3.19 0.017206 0.102109
3.20 0.016201 0.098851
3.21 0.015229 0.095648
3.22 0.014288 0.092498
3.23 0.013379 0.089401
3.24 0.012500 0.086356
3.25 0.011651 0.083362
3.26 0.010832 0.080418
3.27 0.010043 0.077524
3.28 0.009282 0.074678
3.29 0.008549 0.071881
3.30 0.007844 0.069131
3.31 0.007166 0.066427
3.32 0.006515 0.063770
3.33 0.005891 0.061159
3.34 0.005292 0.058592
3.35 0.004719 0.056070
3.36 0.004170 0.053592
3.37 0.003647 0.051159
3.38 0.003147 0.048768
3.39 0.002671 0.046422
3.40 0.002219 0.044118
3.41 0.001789 0.041857
3.42 0.001381 0.039639
3.43 0.000996 0.037464
3.44 0.000632 0.035331
3.45 0.000289 0.033242
3.46 -0.000033 0.031195
3.47 -0.000335 0.029191
3.48 -0.000617 0.027231
3.49 -0.000880 0.025314
3.50 -0.001124 0.023441
3.51 -0.001349 0.021612
3.52 -0.001556 0.019828
3.53 -0.001745 0.018088
3.54 -0.001918 0.016393
3.55 -0.002073 0.014744
3.56 -0.002213 0.013141
3.57 -0.002336 0.011585
3.58 -0.002445 0.010075
3.59 -0.002538 0.008613
3.60 -0.002617 0.007198
3.61 -0.002682 0.005832
3.62 -0.002734 0.004514
3.63 -0.002773 0.003245
3.64 -0.002799 0.002026
3.65 -0.002813 0.000856
3.66 -0.002816 -0.000264
3.67 -0.002808 -0.001334
3.68 -0.002790 -0.002354
3.69 -0.002761 -0.003323
3.70 -0.002723 -0.004242
3.71 -0.002677 -0.005111
3.72 -0.002621 -0.005929
3.73 -0.002558 -0.006698
3.74 -0.002488 -0.007416
3.75 -0.002410 -0.008086
3.76 -0.002326 -0.008706
3.77 -0.002236 -0.009279
3.78 -0.002141 -0.009803
3.79 -0.002040 -0.010281
3.80 -0.001935 -0.010712
3.81 -0.001826 -0.011099
3.82 -0.001713 -0.011441
3.83 -0.001597 -0.011741
3.84 -0.001479 -0.011998
3.85 -0.001358 -0.012216
3.86 -0.001235 -0.012394
3.87 -0.001110 -0.012535
3.88 -0.000984 -0.012641
3.89 -0.000857 -0.012712
3.90 -0.000730 -0.012751
3.91 -0.000602 -0.012759
3.92 -0.000475 -0.012738
3.93 -0.000348 -0.012691
3.94 -0.000221 -0.012619
3.95 -0.000095 -0.012524
3.96 0.000029 -0.012409
3.97 0.000153 -0.012274
3.98 0.000275 -0.012124
3.99 0.000395 -0.011959
4.00 0.000514 -0.011782
4.01 0.000631 -0.011594
4.02 0.000746 -0.011397
4.03 0.000859 -0.011191
4.04 0.000970 -0.010977
4.05 0.001078 -0.010756
4.06 0.001185 -0.010527
4.07 0.001289 -0.010292
4.08 0.001391 -0.010051
4.09 0.001490 -0.009805
4.10 0.001587 -0.009554
4.11 0.001681 -0.009300
4.12 0.001773 -0.009041
4.13 0.001862 -0.008779
4.14 0.001948 -0.008515
4.15 0.002032 -0.008248
4.16 0.002113 -0.007979
4.17 0.002192 -0.007709
4.18 0.002267 -0.007438
4.19 0.002340 -0.007167
4.20 0.002411 -0.006895
4.21 0.002478 -0.006624
4.22 0.002543 -0.006353
4.23 0.002605 -0.006083
4.24 0.002665 -0.005814
4.25 0.002722 -0.005546
4.26 0.002776 -0.005281
4.27 0.002827 -0.005017
4.28 0.002876 -0.004756
4.29 0.002922 -0.004497
4.30 0.002966 -0.004241
4.31 0.003007 -0.003989
4.32 0.003046 -0.003739
4.33 0.003082 -0.003493
4.34 0.003116 -0.003250
4.35 0.003147 -0.003011
4.36 0.003176 -0.002777
4.37 0.003203 -0.002546
4.38 0.003227 -0.002319
4.39 0.003249 -0.002097
4.40 0.003269 -0.001879
4.41 0.003287 -0.001666
4.42 0.003302 -0.001457
4.43 0.003316 -0.001253
4.44 0.003327 -0.001053
4.45 0.003337 -0.000859
4.46 0.003344 -0.000669
4.47 0.003350 -0.000484
4.48 0.003354 -0.000305
4.49 0.003356 -0.000130
4.50 0.003357 0.000040
4.51 0.003355 0.000205
4.52 0.003353 0.000365
4.53 0.003348 0.000520
4.54 0.003342 0.000671
4.55 0.003335 0.000816
4.56 0.003326 0.000956
4.57 0.003316 0.001092
4.58 0.003304 0.001223
4.59 0.003291 0.001349
4.60 0.003277 0.001470
4.61 0.003262 0.001587
4.62 0.003245 0.001699
4.63 0.003228 0.001807
4.64 0.003209 0.001910
4.65 0.003190 0.002009
4.66 0.003169 0.002103
4.67 0.003148 0.002193
4.68 0.003125 0.002279
4.69 0.003102 0.002361
4.70 0.003078 0.002440
4.71 0.003053 0.002514
4.72 0.003028 0.002584
4.73 0.003002 0.002651
4.74 0.002975 0.002714
4.75 0.002947 0.002773
4.76 0.002919 0.002830
4.77 0.002891 0.002882
4.78 0.002862 0.002932
4.79 0.002832 0.002978
4.80 0.002802 0.003022
4.81 0.002772 0.003062
4.82 0.002741 0.003099
4.83 0.002710 0.003134
4.84 0.002678 0.003166
4.85 0.002646 0.003196
4.86 0.002614 0.003223
4.87 0.002582 0.003247
4.88 0.002549 0.003269
4.89 0.002517 0.003289
4.90 0.002484 0.003307
4.91 0.002450 0.003323
4.92 0.002417 0.003336
4.93 0.002384 0.003348
4.94 0.002350 0.003358
4.95 0.002317 0.003366
4.96 0.002283 0.003372
4.97 0.002249 0.003377
4.98 0.002215 0.003381
4.99 0.002182 0.003382
5.00 0.002148 0.003383
5.01 0.002114 0.003382
5.02 0.002080 0.003379
5.03 0.002046 0.003376
5.04 0.002013 0.003371
5.05 0.001979 0.003365
5.06 0.001945 0.003358
5.07 0.001912 0.003350
5.08 0.001878 0.003341
5.09 0.001845 0.003332
5.10 0.001812 0.003321
5.11 0.001779 0.003309
5.12 0.001745 0.003296
5.13 0.001713 0.003283
5.14 0.001680 0.003269
5.15 0.001647 0.003254
5.16 0.001615 0.003239
5.17 0.001582 0.003222
5.18 0.001550 0.003206
5.19 0.001518 0.003188
5.20 0.001487 0.003170
5.21 0.001455 0.003151
5.22 0.001424 0.003132
5.23 0.001392 0.003112
5.24 0.001361 0.003092
5.25 0.001330 0.003071
5.26 0.001300 0.003049
5.27 0.001269 0.003027
5.28 0.001239 0.003005
5.29 0.001209 0.002982
5.30 0.001180 0.002958
5.31 0.001150 0.002934
5.32 0.001121 0.002910
5.33 0.001092 0.002884
5.34 0.001063 0.002859
5.35 0.001035 0.002833
5.36 0.001007 0.002806
5.37 0.000979 0.002779
5.38 0.000951 0.002752
5.39 0.000924 0.002723
5.40 0.000897 0.002695
5.41 0.000870 0.002666
5.42 0.000843 0.002636
5.43 0.000817 0.002606
5.44 0.000791 0.002575
5.45 0.000766 0.002544
5.46 0.000740 0.002512
5.47 0.000715 0.002479
5.48 0.000691 0.002446
5.49 0.000666 0.002413
5.50 0.000642 0.002379
5.51 0.000619 0.002344
5.52 0.000596 0.002309
5.53 0.000573 0.002273
5.54 0.000550 0.002237
5.55 0.000528 0.002200
5.56 0.000506 0.002162
5.57 0.000485 0.002124
5.58 0.000464 0.002085
5.59 0.000443 0.002046
5.60 0.000423 0.002006
5.61 0.000403 0.001965
5.62 0.000383 0.001924
5.63 0.000364 0.001882
5.64 0.000346 0.001840
5.65 0.000328 0.001797
5.66 0.000310 0.001753
5.67 0.000293 0.001709
5.68 0.000276 0.001664
5.69 0.000259 0.001619
5.70 0.000243 0.001573
5.71 0.000228 0.001526
5.72 0.000213 0.001479
5.73 0.000198 0.001432
5.74 0.000184 0.001384
5.75 0.000171 0.001335
5.76 0.000157 0.001286
5.77 0.000145 0.001236
5.78 0.000133 0.001186
5.79 0.000121 0.001136
5.80 0.000110 0.001085
5.81 0.000099 0.001033
5.82 0.000089 0.000982
5.83 0.000080 0.000929
5.84 0.000071 0.000877
5.85 0.000062 0.000824
5.86 0.000054 0.000770
5.87 0.000047 0.000717
5.88 0.000040 0.000663
5.89 0.000034 0.000609
5.90 0.000028 0.000554
5.91 0.000023 0.000499
5.92 0.000018 0.000444
5.93 0.000014 0.000389
5.94 0.000010 0.000334
5.95 0.000007 0.000279
5.96 0.000004 0.000223
5.97 0.000003 0.000167
5.98 0.000001 0.000112
5.99 0.000000 0.000056
6.00 0.000000 0.000000
