Distance (Å)  Energy (eV)  Force (eV/Å)
0.10 1.045871 8.885752
0.11 0.966810 6.986297
0.12 0.905063 5.411899
0.13 0.857683 4.104738
0.14 0.822229 3.019918
0.15 0.796661 2.122428
0.16 0.779248 1.384667
0.17 0.768509 0.784519
0.18 0.763160 0.303881
0.19 0.762084 -0.072445
0.20 0.764305 -0.357559
0.21 0.768970 -0.563048
0.22 0.775335 -0.699388
0.23 0.782759 -0.776211
0.24 0.790691 -0.802485
0.25 0.798668 -0.786600
0.26 0.806309 -0.736424
0.27 0.813307 -0.659308
0.28 0.819428 -0.562083
0.29 0.824503 -0.451035
0.30 0.828422 -0.331883
0.31 0.831131 -0.209758
0.32 0.832622 -0.089183
0.33 0.832933 0.025936
0.34 0.832133 0.132309
0.35 0.830325 0.227258
0.36 0.827633 0.308695
0.37 0.824201 0.375103
0.38 0.820184 0.425501
0.39 0.815746 0.459406
0.40 0.811051 0.476790
0.41 0.806264 0.478037
0.42 0.801542 0.463887
0.43 0.797034 0.435393
0.44 0.792877 0.393862
0.45 0.789195 0.340810
0.46 0.786094 0.277907
0.47 0.783664 0.206930
0.48 0.781976 0.129716
0.49 0.781084 0.048120
0.50 0.781022 -0.036029
0.51 0.781807 -0.120965
0.52 0.783439 -0.205014
0.53 0.785900 -0.286627
0.54 0.789158 -0.364401
0.55 0.793171 -0.437100
0.56 0.797880 -0.503671
0.57 0.803221 -0.563252
0.58 0.809119 -0.615174
0.59 0.815497 -0.658971
0.60 0.822271 -0.694368
0.61 0.829356 -0.721278
0.62 0.836668 -0.739791
0.63 0.844125 -0.750162
0.64 0.851646 -0.752792
0.65 0.859157 -0.748217
0.66 0.866588 -0.737082
0.67 0.873879 -0.720127
0.68 0.880974 -0.698166
0.69 0.887828 -0.672065
0.70 0.894405 -0.642724
0.71 0.900675 -0.611059
0.72 0.906621 -0.577986
0.73 0.912233 -0.544398
0.74 0.917510 -0.511160
0.75 0.922460 -0.479088
0.76 0.927098 -0.448941
0.77 0.931448 -0.421410
0.78 0.935537 -0.397112
0.79 0.939403 -0.376582
0.80 0.943083 -0.360268
0.81 0.946623 -0.348531
0.82 0.950070 -0.341642
0.83 0.953473 -0.339780
0.84 0.956883 -0.343038
0.85 0.960351 -0.351422
0.86 0.963928 -0.364856
0.87 0.967664 -0.383187
0.88 0.971607 -0.406188
0.89 0.975802 -0.433568
0.90 0.980292 -0.464975
0.91 0.985114 -0.500004
0.92 0.990303 -0.538205
0.93 0.995887 -0.579088
0.94 1.001892 -0.622132
0.95 1.008335 -0.666795
0.96 1.015231 -0.712513
0.97 1.022587 -0.758716
0.98 1.030405 -0.804830
0.99 1.038681 -0.850285
1.00 1.047407 -0.894520
1.01 1.056566 -0.936989
1.02 1.066139 -0.977169
1.03 1.076100 -1.014559
1.04 1.086419 -1.048691
1.05 1.097061 -1.079129
1.06 1.107988 -1.105476
1.07 1.119156 -1.127374
1.08 1.130520 -1.144508
1.09 1.142029 -1.156606
1.10 1.153634 -1.163444
1.11 1.165280 -1.164841
1.12 1.176912 -1.160665
1.13 1.188475 -1.150830
1.14 1.199910 -1.135296
1.15 1.211162 -1.114065
1.16 1.222173 -1.087185
1.17 1.232887 -1.054745
1.18 1.243249 -1.016872
1.19 1.253207 -0.973730
1.20 1.262707 -0.925516
1.21 1.271701 -0.872461
1.22 1.280141 -0.814821
1.23 1.287983 -0.752880
1.24 1.295185 -0.686941
1.25 1.301709 -0.617327
1.26 1.307521 -0.544378
1.27 1.312587 -0.468444
1.28 1.316881 -0.389884
1.29 1.320377 -0.309066
1.30 1.323056 -0.226359
1.31 1.324899 -0.142134
1.32 1.325895 -0.056760
1.33 1.326032 0.029400
1.34 1.325305 0.115987
1.35 1.323712 0.202653
1.36 1.321253 0.289058
1.37 1.317933 0.374876
1.38 1.313758 0.459795
1.39 1.308741 0.543515
1.40 1.302893 0.625756
1.41 1.296232 0.706252
1.42 1.288775 0.784756
1.43 1.280544 0.861040
1.44 1.271562 0.934895
1.45 1.261855 1.006129
1.46 1.251449 1.074571
1.47 1.240373 1.140072
1.48 1.228658 1.202497
1.49 1.216334 1.261736
1.50 1.203434 1.317693
1.51 1.189991 1.370295
1.52 1.176039 1.419483
1.53 1.161613 1.465218
1.54 1.146746 1.507478
1.55 1.131475 1.546257
1.56 1.115833 1.581562
1.57 1.099855 1.613419
1.58 1.083576 1.641863
1.59 1.067029 1.666947
1.60 1.050248 1.688731
1.61 1.033265 1.707290
1.62 1.016113 1.722706
1.63 0.998821 1.735072
1.64 0.981421 1.744489
1.65 0.963941 1.751065
1.66 0.946409 1.754912
1.67 0.928851 1.756151
1.68 0.911294 1.754904
1.69 0.893761 1.751299
1.70 0.876276 1.745465
1.71 0.858859 1.737532
1.72 0.841531 1.727633
1.73 0.824312 1.715901
1.74 0.807219 1.702465
1.75 0.790268 1.687457
1.76 0.773475 1.671006
1.77 0.756853 1.653236
1.78 0.740414 1.634271
1.79 0.724171 1.614230
1.80 0.708133 1.593230
1.81 0.692309 1.571382
1.82 0.676708 1.548792
1.83 0.661335 1.525564
1.84 0.646198 1.501794
1.85 0.631301 1.477575
1.86 0.616648 1.452993
1.87 0.602242 1.428129
1.88 0.588086 1.403061
1.89 0.574181 1.377859
1.90 0.560529 1.352587
1.91 0.547129 1.327306
1.92 0.533983 1.302071
1.93 0.521088 1.276932
1.94 0.508444 1.251934
1.95 0.496048 1.227116
1.96 0.483900 1.202515
1.97 0.471997 1.178161
1.98 0.460336 1.154082
1.99 0.448915 1.130301
2.00 0.437729 1.106837
2.01 0.426777 1.083707
2.02 0.416054 1.060924
2.03 0.405557 1.038497
2.04 0.395283 1.016435
2.05 0.385227 0.994741
2.06 0.375387 0.973418
2.07 0.365758 0.952468
2.08 0.356336 0.931890
2.09 0.347119 0.911680
2.10 0.338101 0.891835
2.11 0.329281 0.872350
2.12 0.320653 0.853219
2.13 0.312215 0.834435
2.14 0.303963 0.815991
2.15 0.295894 0.797880
2.16 0.288005 0.780092
2.17 0.280291 0.762621
2.18 0.272751 0.745458
2.19 0.265381 0.728594
2.20 0.258178 0.712021
2.21 0.251140 0.695732
2.22 0.244263 0.679718
2.23 0.237545 0.663973
2.24 0.230982 0.648490
2.25 0.224574 0.633261
2.26 0.218316 0.618282
2.27 0.212207 0.603545
2.28 0.206245 0.589047
2.29 0.200426 0.574782
2.30 0.194748 0.560747
2.31 0.189210 0.546937
2.32 0.183809 0.533349
2.33 0.178542 0.519980
2.34 0.173408 0.506829
2.35 0.168405 0.493892
2.36 0.163530 0.481168
2.37 0.158781 0.468655
2.38 0.154156 0.456353
2.39 0.149653 0.444261
2.40 0.145270 0.432378
2.41 0.141005 0.420703
2.42 0.136855 0.409236
2.43 0.132820 0.397978
2.44 0.128895 0.386927
2.45 0.125080 0.376084
2.46 0.121373 0.365448
2.47 0.117771 0.355021
2.48 0.114272 0.344800
2.49 0.110874 0.334787
2.50 0.107575 0.324981
2.51 0.104374 0.315382
2.52 0.101267 0.305989
2.53 0.098253 0.296801
2.54 0.095330 0.287818
2.55 0.092496 0.279039
2.56 0.089749 0.270462
2.57 0.087086 0.262087
2.58 0.084506 0.253912
2.59 0.082007 0.245935
2.60 0.079587 0.238154
2.61 0.077244 0.230568
2.62 0.074975 0.223173
2.63 0.072780 0.215969
2.64 0.070655 0.208952
2.65 0.068600 0.202119
2.66 0.066612 0.195469
2.67 0.064690 0.188997
2.68 0.062832 0.182702
2.69 0.061035 0.176579
2.70 0.059299 0.170626
2.71 0.057622 0.164839
2.72 0.056002 0.159215
2.73 0.054437 0.153750
2.74 0.052927 0.148442
2.75 0.051468 0.143286
2.76 0.050060 0.138279
2.77 0.048702 0.133419
2.78 0.047391 0.128700
2.79 0.046127 0.124121
2.80 0.044909 0.119677
2.81 0.043734 0.115365
2.82 0.042601 0.111182
2.83 0.041509 0.107124
2.84 0.040458 0.103190
2.85 0.039445 0.099374
2.86 0.038470 0.095676
2.87 0.037531 0.092090
2.88 0.036628 0.088616
2.89 0.035759 0.085249
2.90 0.034923 0.081988
2.91 0.034119 0.078830
2.92 0.033346 0.075772
2.93 0.032603 0.072811
2.94 0.031889 0.069947
2.95 0.031204 0.067175
2.96 0.030545 0.064495
2.97 0.029913 0.061903
2.98 0.029307 0.059399
2.99 0.028725 0.056980
3.00 0.028167 0.054644
3.01 0.027632 0.052389
3.02 0.027119 0.050214
3.03 0.026627 0.048116
3.04 0.026156 0.046094
3.05 0.025705 0.044146
3.06 0.025273 0.042271
3.07 0.024860 0.040467
3.08 0.024464 0.038732
3.09 0.024085 0.037064
3.10 0.023722 0.035462
3.11 0.023375 0.033925
3.12 0.023044 0.032450
3.13 0.022726 0.031036
3.14 0.022423 0.029681
3.15 0.022132 0.028384
3.16 0.021855 0.027143
3.17 0.021589 0.025957
3.18 0.021335 0.024823
3.19 0.021093 0.023740
3.20 0.020860 0.022706
3.21 0.020638 0.021720
3.22 0.020426 0.020780
3.23 0.020223 0.019884
3.24 0.020028 0.019031
3.25 0.019842 0.018218
3.26 0.019664 0.017444
3.27 0.019493 0.016708
3.28 0.019329 0.016008
3.29 0.019173 0.015342
3.30 0.019022 0.014709
3.31 0.018878 0.014107
3.32 0.018740 0.013534
3.33 0.018608 0.012989
3.34 0.018480 0.012471
3.35 0.018358 0.011978
3.36 0.018241 0.011508
3.37 0.018128 0.011062
3.38 0.018019 0.010636
3.39 0.017915 0.010231
3.40 0.017815 0.009844
3.41 0.017718 0.009476
3.42 0.017625 0.009125
3.43 0.017536 0.008790
3.44 0.017449 0.008470
3.45 0.017366 0.008165
3.46 0.017286 0.007874
3.47 0.017209 0.007596
3.48 0.017134 0.007331
3.49 0.017062 0.007079
3.50 0.016992 0.006839
3.51 0.016925 0.006611
3.52 0.016860 0.006394
3.53 0.016797 0.006189
3.54 0.016736 0.005995
3.55 0.016677 0.005813
3.56 0.016620 0.005642
3.57 0.016564 0.005483
3.58 0.016510 0.005335
3.59 0.016458 0.005200
3.60 0.016406 0.005076
3.61 0.016356 0.004964
3.62 0.016307 0.004865
3.63 0.016259 0.004779
3.64 0.016211 0.004706
3.65 0.016165 0.004646
3.66 0.016118 0.004599
3.67 0.016072 0.004566
3.68 0.016027 0.004547
3.69 0.015982 0.004542
3.70 0.015936 0.004552
3.71 0.015890 0.004576
3.72 0.015844 0.004614
3.73 0.015798 0.004667
3.74 0.015751 0.004735
3.75 0.015703 0.004817
3.76 0.015655 0.004913
3.77 0.015605 0.005024
3.78 0.015554 0.005148
3.79 0.015502 0.005286
3.80 0.015448 0.005436
3.81 0.015393 0.005600
3.82 0.015336 0.005775
3.83 0.015278 0.005962
3.84 0.015217 0.006159
3.85 0.015154 0.006367
3.86 0.015090 0.006583
3.87 0.015023 0.006807
3.88 0.014954 0.007039
3.89 0.014882 0.007276
3.90 0.014808 0.007519
3.91 0.014732 0.007765
3.92 0.014653 0.008014
3.93 0.014571 0.008264
3.94 0.014487 0.008514
3.95 0.014401 0.008763
3.96 0.014312 0.009009
3.97 0.014221 0.009251
3.98 0.014127 0.009488
3.99 0.014031 0.009719
4.00 0.013933 0.009941
4.01 0.013832 0.010153
4.02 0.013730 0.010357
4.03 0.013625 0.010550
4.04 0.013519 0.010734
4.05 0.013411 0.010907
4.06 0.013301 0.011071
4.07 0.013189 0.011225
4.08 0.013076 0.011368
4.09 0.012962 0.011502
4.10 0.012846 0.011625
4.11 0.012729 0.011738
4.12 0.012612 0.011842
4.13 0.012493 0.011935
4.14 0.012373 0.012018
4.15 0.012252 0.012092
4.16 0.012131 0.012156
4.17 0.012009 0.012210
4.18 0.011887 0.012255
4.19 0.011764 0.012290
4.20 0.011641 0.012317
4.21 0.011518 0.012334
4.22 0.011394 0.012342
4.23 0.011271 0.012342
4.24 0.011148 0.012333
4.25 0.011024 0.012317
4.26 0.010901 0.012291
4.27 0.010779 0.012259
4.28 0.010656 0.012218
4.29 0.010534 0.012171
4.30 0.010413 0.012116
4.31 0.010292 0.012054
4.32 0.010172 0.011986
4.33 0.010052 0.011911
4.34 0.009934 0.011831
4.35 0.009816 0.011744
4.36 0.009699 0.011653
4.37 0.009583 0.011556
4.38 0.009468 0.011454
4.39 0.009354 0.011347
4.40 0.009241 0.011236
4.41 0.009129 0.011121
4.42 0.009018 0.011002
4.43 0.008909 0.010880
4.44 0.008801 0.010755
4.45 0.008694 0.010626
4.46 0.008588 0.010495
4.47 0.008484 0.010362
4.48 0.008381 0.010227
4.49 0.008279 0.010090
4.50 0.008179 0.009951
4.51 0.008080 0.009811
4.52 0.007983 0.009670
4.53 0.007887 0.009529
4.54 0.007792 0.009387
4.55 0.007699 0.009245
4.56 0.007607 0.009103
4.57 0.007517 0.008961
4.58 0.007428 0.008820
4.59 0.007341 0.008680
4.60 0.007255 0.008540
4.61 0.007170 0.008402
4.62 0.007087 0.008265
4.63 0.007005 0.008130
4.64 0.006924 0.007997
4.65 0.006845 0.007866
4.66 0.006767 0.007737
4.67 0.006690 0.007610
4.68 0.006614 0.007486
4.69 0.006540 0.007364
4.70 0.006467 0.007246
4.71 0.006395 0.007130
4.72 0.006324 0.007018
4.73 0.006255 0.006908
4.74 0.006186 0.006802
4.75 0.006119 0.006700
4.76 0.006052 0.006601
4.77 0.005987 0.006505
4.78 0.005922 0.006414
4.79 0.005858 0.006326
4.80 0.005796 0.006242
4.81 0.005734 0.006161
4.82 0.005672 0.006085
4.83 0.005612 0.006012
4.84 0.005552 0.005944
4.85 0.005493 0.005879
4.86 0.005435 0.005819
4.87 0.005377 0.005762
4.88 0.005319 0.005709
4.89 0.005262 0.005661
4.90 0.005206 0.005616
4.91 0.005150 0.005575
4.92 0.005095 0.005538
4.93 0.005039 0.005504
4.94 0.004984 0.005475
4.95 0.004930 0.005448
4.96 0.004875 0.005426
4.97 0.004821 0.005407
4.98 0.004767 0.005392
4.99 0.004713 0.005379
5.00 0.004660 0.005370
5.01 0.004606 0.005364
5.02 0.004552 0.005361
5.03 0.004499 0.005361
5.04 0.004445 0.005364
5.05 0.004392 0.005370
5.06 0.004338 0.005377
5.07 0.004284 0.005388
5.08 0.004230 0.005400
5.09 0.004176 0.005415
5.10 0.004122 0.005431
5.11 0.004067 0.005450
5.12 0.004013 0.005470
5.13 0.003958 0.005491
5.14 0.003903 0.005514
5.15 0.003848 0.005538
5.16 0.003792 0.005563
5.17 0.003736 0.005589
5.18 0.003680 0.005616
5.19 0.003624 0.005643
5.20 0.003568 0.005670
5.21 0.003511 0.005698
5.22 0.003454 0.005726
5.23 0.003396 0.005753
5.24 0.003338 0.005781
5.25 0.003281 0.005807
5.26 0.003222 0.005834
5.27 0.003164 0.005859
5.28 0.003105 0.005884
5.29 0.003046 0.005907
5.30 0.002987 0.005929
5.31 0.002928 0.005950
5.32 0.002868 0.005969
5.33 0.002808 0.005987
5.34 0.002748 0.006003
5.35 0.002688 0.006016
5.36 0.002628 0.006028
5.37 0.002568 0.006037
5.38 0.002507 0.006044
5.39 0.002447 0.006049
5.40 0.002386 0.006051
5.41 0.002326 0.006050
5.42 0.002265 0.006046
5.43 0.002205 0.006039
5.44 0.002145 0.006029
5.45 0.002084 0.006016
5.46 0.002024 0.006000
5.47 0.001964 0.005980
5.48 0.001905 0.005957
5.49 0.001845 0.005930
5.50 0.001786 0.005900
5.51 0.001727 0.005866
5.52 0.001669 0.005829
5.53 0.001611 0.005788
5.54 0.001553 0.005743
5.55 0.001496 0.005694
5.56 0.001439 0.005641
5.57 0.001383 0.005584
5.58 0.001327 0.005523
5.59 0.001273 0.005459
5.60 0.001218 0.005390
5.61 0.001165 0.005318
5.62 0.001112 0.005241
5.63 0.001060 0.005161
5.64 0.001009 0.005076
5.65 0.000958 0.004988
5.66 0.000909 0.004896
5.67 0.000861 0.004800
5.68 0.000813 0.004700
5.69 0.000767 0.004596
5.70 0.000721 0.004489
5.71 0.000677 0.004378
5.72 0.000634 0.004263
5.73 0.000592 0.004145
5.74 0.000551 0.004024
5.75 0.000511 0.003899
5.76 0.000473 0.003771
5.77 0.000436 0.003639
5.78 0.000400 0.003505
5.79 0.000366 0.003367
5.80 0.000333 0.003227
5.81 0.000301 0.003083
5.82 0.000271 0.002937
5.83 0.000242 0.002789
5.84 0.000215 0.002638
5.85 0.000190 0.002485
5.86 0.000165 0.002329
5.87 0.000143 0.002172
5.88 0.000122 0.002012
5.89 0.000103 0.001851
5.90 0.000085 0.001688
5.91 0.000069 0.001524
5.92 0.000055 0.001358
5.93 0.000042 0.001191
5.94 0.000031 0.001023
5.95 0.000021 0.000854
5.96 0.000014 0.000684
5.97 0.000008 0.000513
5.98 0.000003 0.000343
5.99 0.000001 0.000171
6.00 0.000000 0.000000
